0.545
0.553
0.557
0.557
0.555
0.549
0.545
0.538
0.532
0.53
0.528
0.532
0.534
0.54
0.543
0.545
0.547
0.547
0.545
0.545
0.543
0.543
0.545
0.547
0.549
0.551
0.551
0.553
0.553
0.553
0.553
0.555
0.557
0.561
0.561
0.563
0.561
0.559
0.555
0.553
0.549
0.549
0.551
0.557
0.565
0.575
0.581
0.587
0.587
0.587
0.581
0.579
0.577
0.575
0.579
0.585
0.59
0.596
0.6
0.604
0.606
0.606
0.604
0.602
0.602
0.604
0.604
0.606
0.604
0.6
0.598
0.598
0.598
0.602
0.608
0.616
0.628
0.637
0.645
0.649
0.647
0.641
0.635
0.628
0.62
0.618
0.618
0.622
0.631
0.639
0.647
0.653
0.659
0.661
0.663
0.661
0.659
0.659
0.661
0.665
0.667
0.669
0.669
0.671
0.671
0.671
0.673
0.673
0.674
0.676
0.674
0.673
0.667
0.663
0.657
0.651
0.649
0.647
0.649
0.653
0.659
0.663
0.663
0.659
0.655
0.647
0.637
0.63
0.624
0.622
0.624
0.63
0.635
0.639
0.643
0.643
0.643
0.639
0.635
0.631
0.631
0.633
0.637
0.641
0.643
0.645
0.645
0.645
0.643
0.641
0.641
0.645
0.647
0.649
0.649
0.649
0.645
0.641
0.639
0.635
0.633
0.633
0.637
0.643
0.649
0.651
0.651
0.645
0.639
0.633
0.626
0.622
0.62
0.62
0.626
0.626
0.628
0.626
0.624
0.618
0.616
0.61
0.606
0.602
0.602
0.602
0.604
0.602
0.6
0.6
0.6
0.598
0.6
0.6
0.604
0.608
0.612
0.612
0.612
0.61
0.606
0.602
0.6
0.596
0.596
0.596
0.602
0.604
0.604
0.602
0.596
0.59
0.587
0.583
0.579
0.581
0.583
0.588
0.594
0.6
0.602
0.604
0.604
0.602
0.602
0.598
0.594
0.596
0.596
0.596
0.596
0.594
0.592
0.592
0.592
0.594
0.596
0.602
0.612
0.62
0.626
0.63
0.628
0.626
0.62
0.614
0.61
0.608
0.612
0.614
0.622
0.626
0.626
0.628
0.624
0.618
0.614
0.608
0.606
0.608
0.614
0.62
0.626
0.628
0.63
0.628
0.624
0.622
0.616
0.612
0.61
0.608
0.608
0.608
0.608
0.608
0.61
0.61
0.61
0.61
0.612
0.61
0.608
0.604
0.6
0.596
0.592
0.59
0.592
0.596
0.602
0.608
0.616
0.622
0.624
0.622
0.614
0.606
0.6
0.59
0.585
0.585
0.587
0.592
0.6
0.608
0.614
0.618
0.616
0.614
0.606
0.6
0.594
0.59
0.588
0.588
0.588
0.587
0.587
0.585
0.585
0.583
0.585
0.585
0.587
0.588
0.592
0.592
0.592
0.588
0.588
0.587
0.587
0.588
0.59
0.594
0.6
0.604
0.606
0.604
0.604
0.602
0.6
0.6
0.602
0.606
0.614
0.622
0.628
0.63
0.63
0.626
0.62
0.616
0.612
0.608
0.61
0.614
0.618
0.624
0.624
0.626
0.626
0.626
0.628
0.626
0.626
0.63
0.633
0.637
0.639
0.637
0.635
0.631
0.63
0.628
0.626
0.628
0.631
0.637
0.641
0.643
0.643
0.641
0.637
0.633
0.63
0.628
0.63
0.633
0.641
0.649
0.655
0.653
0.641
0.628
0.61
0.602
0.604
0.616
0.637
0.661
0.682
0.696
0.702
0.7
0.692
0.674
0.653
0.631
0.62
0.62
0.628
0.643
0.661
0.674
0.682
0.684
0.684
0.678
0.674
0.674
0.674
0.673
0.663
0.649
0.631
0.626
0.635
0.663
0.7
0.737
0.761
0.766
0.751
0.723
0.688
0.653
0.626
0.612
0.616
0.635
0.667
0.7
0.733
0.753
0.757
0.735
0.7
0.657
0.62
0.602
0.612
0.641
0.674
0.696
0.696
0.686
0.671
0.655
0.643
0.63
0.622
0.626
0.645
0.678
0.712
0.725
0.716
0.688
0.651
0.618
0.592
0.573
0.559
0.545
0.545
0.569
0.614
0.667
0.7
0.706
0.682
0.637
0.579
0.522
0.477
0.444
0.43
0.452
0.524
0.641
0.768
0.87
0.907
0.856
0.731
0.579
0.444
0.344
0.293
0.309
0.397
0.538
0.716
0.886
0.979
0.974
0.882
0.735
0.575
0.436
0.348
0.325
0.379
0.51
0.702
0.921
1.11
1.216
1.2
1.058
0.819
0.545
0.293
0.119
0.049
0.086
0.221
0.436
0.69
0.931
1.122
1.241
1.261
1.228
1.11
0.917
0.673
0.434
0.274
0.219
0.272
0.411
0.59
0.788
0.974
1.11
1.165
1.13
1.021
0.864
0.704
0.59
0.549
0.585
0.673
0.764
0.817
0.831
0.809
0.772
0.717
0.657
0.618
0.631
0.71
0.837
0.979
1.099
1.161
1.173
1.146
1.099
1.04
0.991
0.95
0.911
0.89
0.88
0.88
0.882
0.882
0.882
0.891
0.899
0.909
0.923
0.942
0.938
0.897
0.819
0.735
0.674
0.669
0.727
0.845
1.003
1.177
1.265
1.265
1.22
1.079
0.903
0.741
0.622
0.559
0.559
0.633
0.774
0.958
1.146
1.261
1.261
1.196
1.046
0.835
0.602
0.375
0.217
0.176
0.252
0.424
0.667
0.942
1.189
1.269
1.267
1.259
1.185
1.05
0.903
0.78
0.712
0.708
0.739
0.786
0.817
0.815
0.782
0.731
0.69
0.676
0.696
0.764
0.866
0.983
1.087
1.142
1.128
1.042
0.891
0.7
0.495
0.336
0.301
0.385
0.573
0.833
1.112
1.269
1.269
1.261
1.185
1.017
0.8
0.567
0.371
0.295
0.383
0.612
0.919
1.226
1.269
1.263
1.169
0.954
0.706
0.5
0.385
0.368
0.457
0.649
0.907
1.171
1.269
1.267
1.232
1.118
0.954
0.784
0.651
0.598
0.606
0.684
0.839
1.017
1.177
1.265
1.267
1.261
1.238
1.175
1.087
0.978
0.819
0.602
0.35
0.127
0.0
0.018
0.194
0.534
0.978
1.271
1.271
1.271
1.271
1.269
1.243
1.091
0.85
0.594
0.413
0.348
0.436
0.659
0.976
1.267
1.271
1.271
1.271
1.269
1.263
1.159
0.956
0.723
0.547
0.508
0.622
0.841
1.058
1.165
1.13
1.005
0.837
0.671
0.561
0.532
0.594
0.749
0.974
1.241
1.271
1.271
1.271
1.269
1.267
1.269
1.267
1.263
1.202
0.964
0.569
0.156
0.0
0.0
0.047
0.305
0.696
1.101
1.269
1.269
1.269
1.267
1.261
1.226
1.157
1.12
1.122
1.144
1.185
1.206
1.204
1.185
1.116
0.958
0.737
0.561
0.495
0.563
0.716
0.876
1.011
1.12
1.236
1.271
1.271
1.271
1.269
1.245
1.089
0.845
0.581
0.326
0.149
0.102
0.227
0.502
0.856
1.193
1.269
1.269
1.269
1.269
1.269
1.263
1.22
1.134
1.052
1.011
0.94
0.819
0.704
0.669
0.782
1.064
1.271
1.271
1.273
1.271
1.236
1.036
0.864
0.821
0.891
0.978
1.011
0.972
0.854
0.764
0.804
0.997
1.249
1.269
1.249
1.124
1.003
0.933
0.888
0.782
0.622
0.516
0.543
0.719
0.968
1.191
1.267
1.267
1.267
1.265
1.257
1.238
1.234
1.226
1.15
0.962
0.674
0.36
0.178
0.184
0.348
0.645
1.065
1.271
1.271
1.273
1.269
1.263
1.112
0.876
0.663
0.479
0.348
0.33
0.483
0.77
1.109
1.269
1.269
1.267
1.261
1.204
1.048
0.829
0.643
0.594
0.737
1.036
1.269
1.271
1.271
1.271
1.269
1.247
1.071
0.862
0.737
0.749
0.843
0.962
1.048
1.04
0.888
0.637
0.368
0.164
0.147
0.373
0.784
1.261
1.273
1.271
1.271
1.269
1.224
1.028
0.827
0.696
0.655
0.727
0.866
1.019
1.126
1.114
1.056
1.112
1.267
1.269
1.267
1.189
0.946
0.698
0.588
0.692
0.936
1.163
1.181
1.003
0.749
0.508
0.362
0.403
0.614
0.88
1.077
1.159
1.136
1.003
0.819
0.671
0.633
0.719
0.878
1.021
1.034
0.891
0.69
0.585
0.68
0.935
1.202
1.265
1.253
1.175
1.042
0.807
0.463
0.109
0.0
0.0
0.111
0.483
0.995
1.271
1.271
1.271
1.265
1.216
1.036
0.764
0.483
0.285
0.197
0.207
0.325
0.551
0.858
1.222
1.271
1.271
1.265
1.163
0.927
0.62
0.289
0.018
0.0
0.0
0.043
0.205
0.448
0.712
0.935
1.093
1.175
1.177
1.114
1.04
0.964
0.839
0.651
0.426
0.19
0.0
0.0
0.027
0.221
0.516
0.79
0.989
1.089
1.083
0.981
0.805
0.563
0.332
0.19
0.137
0.139
0.174
0.215
0.283
0.393
0.53
0.643
0.671
0.602
0.485
0.379
0.309
0.293
0.346
0.465
0.639
0.821
0.968
1.038
0.976
0.761
0.438
0.104
0.0
0.0
0.0
0.0
0.01
0.086
0.227
0.416
0.616
0.764
0.819
0.778
0.69
0.61
0.581
0.6
0.626
0.594
0.497
0.356
0.192
0.049
0.01
0.084
0.207
0.295
0.287
0.188
0.022
0.0
0.0
0.0
0.008
0.066
0.104
0.076
0.012
0.0
0.014
0.108
0.242
0.346
0.358
0.266
0.123
0.0
0.0
0.0
0.0
0.0
0.02
0.092
0.219
0.403
0.616
0.845
1.054
1.21
1.253
1.144
0.882
0.514
0.082
0.0
0.0
0.0
0.0
0.025
0.137
0.268
0.391
0.479
0.526
0.54
0.542
0.54
0.502
0.375
0.145
0.0
0.0
0.0
0.0
0.0
0.0
0.0
0.0
0.0
0.004
0.041
0.115
0.223
0.358
0.485
0.577
0.612
0.598
0.555
0.512
0.518
0.583
0.69
0.831
0.952
0.983
0.911
0.743
0.506
0.252
0.047
0.0
0.004
0.061
0.133
0.197
0.242
0.289
0.366
0.508
0.733
0.983
1.163
1.191
1.054
0.782
0.438
0.098
0.0
0.0
0.0
0.0
0.0
0.0
0.0
0.035
0.135
0.276
0.434
0.579
0.69
0.747
0.739
0.676
0.569
0.446
0.338
0.287
0.317
0.422
0.587
0.774
0.978
1.177
1.269
1.269
1.265
1.189
0.919
0.516
0.07
0.0
0.0
0.0
0.0
0.0
0.0
0.02
0.158
0.389
0.696
1.026
1.267
1.269
1.259
1.107
0.778
0.344
0.0
0.0
0.0
0.0
0.0
0.0
0.0
0.039
0.152
0.303
0.461
0.602
0.7
0.745
0.737
0.682
0.59
0.483
0.377
0.295
0.25
0.24
0.276
0.368
0.504
0.68
0.87
1.038
1.144
1.146
1.017
0.753
0.385
0.0
0.0
0.0
0.0
0.0
0.0
0.0
0.0
0.0
0.0
0.035
0.151
0.305
0.463
0.571
0.592
0.518
0.36
0.137
0.0
0.0
0.0
0.0
0.0
0.0
0.0
0.0
0.008
0.045
0.094
0.147
0.196
0.231
0.254
0.26
0.256
0.242
0.221
0.196
0.168
0.145
0.129
0.137
0.196
0.311
0.459
0.612
0.735
0.792
0.764
0.649
0.438
0.16
0.0
0.0
0.0
0.0
0.0
0.0
0.0
0.0
0.0
0.0
0.0
0.0
0.0
0.012
0.063
0.129
0.197
0.242
0.244
0.211
0.145
0.063
0.0
0.0
0.0
0.0
0.0
0.0
0.0
0.0
0.0
0.0
0.0
0.0
0.0
0.0
0.006
0.02
0.035
0.049
0.059
0.07
0.088
0.108
0.135
0.166
0.203
0.24
0.274
0.285
0.264
0.209
0.135
0.051
0.0
0.0
0.0
0.0
0.0
0.0
0.0
0.004
0.027
0.057
0.084
0.109
0.125
0.131
0.125
0.113
0.1
0.082
0.065
0.049
0.037
0.031
0.039
0.047
0.061
0.074
0.09
0.104
0.113
0.119
0.115
0.106
0.094
0.082
0.072
0.065
0.066
0.078
0.102
0.129
0.156
0.176
0.184
0.18
0.166
0.147
0.127
0.109
0.096
0.09
0.092
0.104
0.129
0.162
0.197
0.227
0.246
0.254
0.246
0.233
0.211
0.186
0.164
0.149
0.141
0.149
0.164
0.186
0.211
0.233
0.252
0.262
0.268
0.266
0.26
0.252
0.25
0.248
0.25
0.256
0.266
0.282
0.301
0.313
0.319
0.319
0.313
0.303
0.291
0.283
0.282
0.285
0.297
0.313
0.33
0.344
0.356
0.36
0.362
0.36
0.356
0.354
0.358
0.364
0.375
0.387
0.395
0.403
0.411
0.414
0.418
0.42
0.422
0.426
0.432
0.438
0.444
0.446
0.448
0.45
0.452
0.454
0.457
0.461
0.471
0.481
0.491
0.499
0.5
0.499
0.493
0.489
0.487
0.491
0.502
0.518
0.536
0.551
0.559
0.563
0.561
0.561
0.559
0.555
0.551
0.549
0.553
0.559
0.571
0.583
0.594
0.604
0.608
0.604
0.594
0.583
0.575
0.571
0.577
0.594
0.618
0.643
0.665
0.682
0.692
0.688
0.673
0.645
0.612
0.581
0.561
0.569
0.606
0.665
0.741
0.813
0.864
0.89
0.882
0.852
0.807
0.741
0.667
0.594
0.549
0.536
0.549
0.581
0.626
0.684
0.757
0.839
0.905
0.933
0.917
0.872
0.802
0.725
0.663
0.628
0.622
0.641
0.671
0.706
0.741
0.77
0.778
0.768
0.768
0.792
0.848
0.919
0.981
1.009
0.991
0.942
0.87
0.798
0.735
0.688
0.661
0.657
0.676
0.723
0.792
0.866
0.936
0.989
1.028
1.052
1.06
1.044
1.007
0.954
0.89
0.815
0.729
0.643
0.569
0.532
0.54
0.594
0.69
0.819
0.958
1.081
1.148
1.132
1.058
0.952
0.839
0.721
0.616
0.549
0.545
0.606
0.719
0.876
1.052
1.208
1.267
1.267
1.265
1.265
1.265
1.265
1.261
1.259
1.247
1.204
1.126
1.028
0.936
0.88
0.868
0.888
0.927
0.995
1.091
1.191
1.255
1.257
1.218
1.142
1.058
0.987
0.952
0.966
1.058
1.232
1.271
1.271
1.271
1.271
1.269
1.271
1.271
1.271
1.271
1.271
1.271
1.271
1.271
1.271
1.271
1.269
1.267
1.267
1.269
1.271
1.269
1.269
1.271
1.269
1.271
1.271
1.271
1.269
1.267
1.267
1.265
1.261
1.239
1.214
1.224
1.259
1.267
1.267
1.265
1.263
1.263
1.261
1.22
1.109
0.987
0.927
0.97
1.105
1.269
1.271
1.271
1.271
1.271
1.269
1.271
1.271
1.271
1.271
1.271
1.269
1.267
1.265
1.245
1.173
1.079
0.999
0.946
0.942
0.981
1.077
1.226
1.269
1.269
1.269
1.269
1.269
1.269
1.269
1.269
1.269
1.267
1.261
1.243
1.234
1.253
1.261
1.261
1.263
1.263
1.265
1.263
1.253
1.2
1.13
1.046
0.954
0.89
0.891
0.976
1.116
1.253
1.267
1.269
1.269
1.269
1.271
1.269
1.269
1.267
1.263
1.239
1.185
1.144
1.144
1.159
1.169
1.152
1.083
0.989
0.905
0.856
0.886
0.987
1.152
1.269
1.269
1.269
1.267
1.265
1.263
1.265
1.261
1.232
1.155
1.046
0.917
0.813
0.764
0.766
0.802
0.888
1.056
1.265
1.271
1.271
1.271
1.271
1.269
1.263
1.187
1.058
0.913
0.749
0.592
0.491
0.428
0.385
0.37
0.391
0.446
0.536
0.651
0.786
0.923
1.046
1.152
1.236
1.261
1.257
1.255
1.261
1.263
1.265
1.263
1.257
1.232
1.189
1.101
0.956
0.768
0.549
0.342
0.219
0.217
0.326
0.506
0.698
0.895
1.103
1.265
1.269
1.267
1.226
1.007
0.708
0.403
0.108
0.0
0.0
0.0
0.094
0.305
0.543
0.762
0.946
1.067
1.095
1.022
0.899
0.817
0.805
0.843
0.876
0.847
0.802
0.757
0.733
0.739
0.759
0.745
0.62
0.397
0.205
0.141
0.24
0.497
0.901
1.271
1.271
1.273
1.271
1.257
1.114
0.933
0.772
0.643
0.545
0.473
0.399
0.348
0.321
0.338
0.413
0.561
0.821
1.167
1.269
1.269
1.265
1.161
0.915
0.606
0.366
0.25
0.274
0.409
0.612
0.854
1.083
1.245
1.263
1.189
1.03
0.905
0.87
0.917
1.032
1.22
1.271
1.269
1.269
1.243
1.079
0.866
0.68
0.571
0.567
0.659
0.786
0.874
0.987
1.22
1.271
1.271
1.269
1.236
1.124
1.044
0.972
0.841
0.69
0.604
0.618
0.716
0.819
0.917
1.06
1.224
1.269
1.267
1.265
1.238
1.142
0.997
0.85
0.727
0.659
0.673
0.823
1.167
1.273
1.273
1.271
1.271
1.269
1.267
1.263
1.259
1.261
1.255
1.234
1.198
1.157
1.122
1.116
1.14
1.155
1.122
1.046
0.972
0.936
0.964
1.073
1.263
1.271
1.271
1.271
1.265
1.198
1.052
0.872
0.739
0.712
0.778
0.886
1.021
1.255
1.273
1.273
1.271
1.273
1.271
1.271
1.269
1.269
1.269
1.265
1.263
1.263
1.269
1.269
1.267
1.251
1.109
0.917
0.727
0.561
0.493
0.567
0.753
1.021
1.269
1.271
1.273
1.273
1.273
1.271
1.273
1.271
1.269
1.271
1.271
1.271
1.271
1.271
1.271
1.269
1.265
1.259
1.261
1.265
1.263
1.245
1.161
0.987
0.796
0.661
0.633
0.704
0.835
0.976
1.118
1.245
1.267
1.267
1.265
1.263
1.261
1.241
1.185
1.134
1.142
1.222
1.267
1.265
1.261
1.241
1.185
1.12
1.095
1.091
1.069
0.997
0.878
0.733
0.612
0.553
0.585
0.688
0.845
1.024
1.195
1.267
1.267
1.267
1.263
1.22
1.083
0.854
0.573
0.326
0.178
0.145
0.221
0.411
0.635
0.823
0.952
1.017
1.021
0.964
0.86
0.717
0.551
0.397
0.285
0.219
0.205
0.254
0.362
0.518
0.71
0.915
1.075
1.132
1.067
0.921
0.733
0.522
0.311
0.123
0.0
0.0
0.0
0.027
0.084
0.143
0.235
0.344
0.428
0.499
0.583
0.655
0.659
0.516
0.211
0.0
0.0
0.0
0.0
0.0
0.0
0.0
0.0
0.0
0.0
0.0
0.0
0.0
0.0
0.0
0.0
0.0
0.0
0.0
0.0
0.0
0.0
0.0
0.0
0.0
0.0
0.0
0.0
0.076
0.205
0.346
0.436
0.418
0.287
0.1
0.0
0.0
0.0
0.0
0.0
0.0
0.0
0.0
0.0
0.0
0.0
0.0
0.0
0.0
0.0
0.0
0.0
0.0
0.0
0.0
0.0
0.0
0.0
0.0
0.0
0.0
0.0
0.0
0.0
0.0
0.0
0.0
0.0
0.0
0.0
0.0
0.0
0.0
0.0
0.0
0.0
0.0
0.0
0.0
0.0
0.0
0.049
0.162
0.289
0.368
0.342
0.194
0.0
0.0
0.0
0.0
0.0
0.0
0.0
0.0
0.0
0.0
0.0
0.0
0.0
0.0
0.0
0.0
0.0
0.0
0.0
0.0
0.0
0.0
0.0
0.0
0.0
0.018
0.094
0.174
0.211
0.178
0.1
0.018
0.0
0.0
0.006
0.027
0.033
0.016
0.0
0.0
0.0
0.0
0.0
0.0
0.012
0.065
0.145
0.219
0.272
0.299
0.319
0.325
0.326
0.317
0.283
0.211
0.115
0.01
0.0
0.0
0.0
0.0
0.0
0.0
0.0
0.0
0.0
0.0
0.0
0.012
0.094
0.209
0.336
0.44
0.491
0.463
0.35
0.176
0.0
0.0
0.0
0.0
0.0
0.0
0.0
0.0
0.0
0.0
0.045
0.119
0.197
0.256
0.299
0.315
0.291
0.242
0.184
0.125
0.088
0.092
0.133
0.211
0.307
0.393
0.43
0.391
0.276
0.117
0.0
0.0
0.0
0.0
0.0
0.0
0.0
0.053
0.145
0.256
0.364
0.456
0.497
0.483
0.428
0.346
0.256
0.164
0.1
0.08
0.106
0.17
0.25
0.328
0.389
0.424
0.43
0.399
0.346
0.278
0.207
0.154
0.121
0.111
0.135
0.194
0.28
0.381
0.487
0.573
0.622
0.63
0.585
0.481
0.34
0.18
0.02
0.0
0.0
0.0
0.0
0.0
0.0
0.0
0.006
0.037
0.078
0.123
0.18
0.239
0.291
0.332
0.36
0.377
0.379
0.362
0.309
0.235
0.149
0.065
0.0
0.0
0.0
0.0
0.0
0.0
0.004
0.004
0.0
0.0
0.0
0.0
0.0
0.0
0.0
0.0
0.0
0.0
0.0
0.0
0.0
0.0
0.0
0.0
0.0
0.0
0.0
0.0
0.0
0.0
0.0
0.0
0.0
0.0
0.0
0.0
0.0
0.0
0.0
0.0
0.0
0.0
0.0
0.0
0.0
0.0
0.0
0.0
0.0
0.0
0.0
0.0
0.0
0.0
0.0
0.0
0.0
0.0
0.0
0.0
0.0
0.0
0.0
0.0
0.0
0.0
0.0
0.0
0.0
0.0
0.0
0.0
0.0
0.0
0.0
0.0
0.0
0.0
0.0
0.0
0.0
0.0
0.0
0.0
0.0
0.0
0.0
0.0
0.0
0.0
0.0
0.0
0.0
0.0
0.0
0.0
0.0
0.008
0.033
0.066
0.106
0.143
0.174
0.196
0.211
0.215
0.207
0.192
0.166
0.141
0.123
0.119
0.129
0.154
0.192
0.233
0.276
0.309
0.325
0.323
0.305
0.276
0.24
0.203
0.18
0.176
0.196
0.235
0.282
0.328
0.368
0.395
0.407
0.403
0.387
0.364
0.334
0.313
0.293
0.285
0.293
0.313
0.34
0.371
0.403
0.43
0.452
0.463
0.471
0.469
0.459
0.448
0.432
0.422
0.42
0.428
0.442
0.461
0.487
0.514
0.536
0.551
0.557
0.555
0.551
0.542
0.534
0.528
0.526
0.53
0.542
0.553
0.567
0.577
0.587
0.59
0.596
0.598
0.6
0.602
0.608
0.614
0.622
0.63
0.633
0.637
0.643
0.649
0.657
0.663
0.674
0.684
0.696
0.704
0.708
0.708
0.706
0.706
0.704
0.704
0.706
0.712
0.719
0.727
0.731
0.735
0.735
0.731
0.727
0.725
0.721
0.721
0.725
0.731
0.739
0.747
0.749
0.747
0.743
0.741
0.739
0.741
0.749
0.759
0.772
0.788
0.796
0.8
0.8
0.8
0.796
0.79
0.788
0.788
0.794
0.802
0.807
0.815
0.819
0.821
0.823
0.823
0.823
0.823
0.827
0.835
0.845
0.854
0.86
0.862
0.862
0.858
0.856
0.852
0.852
0.856
0.864
0.872
0.882
0.888
0.891
0.891
0.89
0.886
0.88
0.872
0.868
0.866
0.866
0.874
0.886
0.907
0.935
0.96
0.976
0.974
0.958
0.933
0.905
0.88
0.864
0.856
0.86
0.876
0.893
0.911
0.923
0.936
0.952
0.97
0.989
1.001
1.001
0.979
0.946
0.903
0.866
0.848
0.858
0.882
0.913
0.942
0.96
0.968
0.976
0.985
0.991
0.993
0.999
1.001
0.993
0.97
0.94
0.919
0.903
0.911
0.94
0.976
1.007
1.021
1.015
0.995
0.976
0.972
0.981
0.993
0.993
0.974
0.948
0.925
0.899
0.874
0.841
0.807
0.788
0.796
0.831
0.884
0.944
1.007
1.052
1.073
1.065
1.026
0.958
0.88
0.809
0.759
0.757
0.815
0.903
0.991
1.067
1.116
1.132
1.116
1.069
1.003
0.933
0.876
0.835
0.817
0.813
0.823
0.858
0.919
1.007
1.109
1.196
1.241
1.212
1.134
1.046
0.981
0.948
0.913
0.858
0.807
0.792
0.817
0.886
0.966
1.034
1.091
1.13
1.153
1.148
1.12
1.077
1.03
0.974
0.917
0.874
0.856
0.874
0.913
0.952
0.993
1.052
1.138
1.261
1.269
1.269
1.269
1.267
1.263
1.241
1.179
1.079
0.95
0.825
0.747
0.739
0.798
0.905
1.046
1.206
1.267
1.267
1.265
1.255
1.214
1.148
1.097
1.069
1.073
1.101
1.142
1.198
1.263
1.269
1.269
1.269
1.269
1.271
1.269
1.267
1.267
1.267
1.267
1.267
1.267
1.269
1.271
1.271
1.271
1.271
1.273
1.271
1.271
1.271
1.271
1.271
1.271
1.271
1.271
1.271
1.271
1.271
1.271
1.271
1.271
1.269
1.269
1.269
1.269
1.269
1.269
1.271
1.273
1.271
1.271
1.271
1.273
1.273
1.273
1.273
1.273
1.273
1.273
1.273
1.273
1.271
1.273
1.271
1.271
1.269
1.267
1.265
1.265
1.265
1.269
1.269
1.269
1.271
1.271
1.271
1.271
1.273
1.273
1.273
1.271
1.273
1.273
1.271
1.269
1.267
1.265
1.263
1.263
1.267
1.269
1.271
1.269
1.265
1.245
1.175
1.073
0.989
0.978
1.044
1.169
1.267
1.271
1.271
1.269
1.265
1.253
1.224
1.202
1.191
1.167
1.116
1.019
0.893
0.796
0.792
0.876
0.989
1.093
1.185
1.251
1.261
1.261
1.247
1.169
1.058
0.956
0.85
0.745
0.633
0.5
0.413
0.397
0.459
0.594
0.778
0.976
1.195
1.271
1.271
1.269
1.265
1.218
1.064
0.874
0.712
0.624
0.641
0.796
1.058
1.269
1.271
1.271
1.263
1.161
0.933
0.63
0.276
0.0
0.0
0.018
0.207
0.512
0.868
1.189
1.271
1.269
1.271
1.271
1.271
1.269
1.216
0.927
0.532
0.156
0.0
0.0
0.043
0.24
0.512
0.841
1.2
1.271
1.271
1.271
1.271
1.271
1.271
1.271
1.269
1.249
1.071
0.794
0.495
0.256
0.156
0.239
0.52
0.942
1.269
1.273
1.269
1.212
0.991
0.786
0.653
0.575
0.51
0.504
0.645
0.978
1.271
1.273
1.269
1.259
1.15
1.05
1.001
1.005
0.993
0.925
0.866
0.864
0.936
1.034
1.134
1.267
1.271
1.273
1.273
1.271
1.243
1.034
0.813
0.739
0.886
1.243
1.273
1.271
1.271
1.265
1.107
0.87
0.743
0.815
1.05
1.265
1.267
1.222
1.058
0.925
0.909
1.024
1.187
1.259
1.23
1.081
0.897
0.784
0.807
0.97
1.224
1.269
1.271
1.269
1.265
1.257
1.22
1.169
1.157
1.191
1.212
1.243
1.269
1.271
1.273
1.273
1.273
1.271
1.271
1.269
1.269
1.267
1.269
1.271
1.271
1.273
1.273
1.273
1.273
1.271
1.265
1.241
1.204
1.202
1.226
1.261
1.269
1.271
1.271
1.271
1.271
1.271
1.271
1.271
1.269
1.269
1.267
1.269
1.269
1.271
1.273
1.273
1.273
1.273
1.273
1.273
1.273
1.273
1.273
1.273
1.271
1.271
1.271
1.269
1.271
1.271
1.273
1.273
1.271
1.271
1.273
1.273
1.273
1.271
1.265
1.232
1.241
1.269
1.269
1.267
1.238
1.153
1.071
0.968
0.827
0.659
0.493
0.385
0.391
0.536
0.772
1.032
1.23
1.267
1.265
1.263
1.267
1.267
1.267
1.265
1.263
1.249
1.183
1.069
0.935
0.823
0.762
0.749
0.776
0.827
0.86
0.817
0.698
0.547
0.422
0.368
0.409
0.545
0.737
0.923
1.021
0.989
0.884
0.743
0.612
0.54
0.538
0.577
0.624
0.673
0.723
0.764
0.776
0.719
0.581
0.366
0.125
0.0
0.0
0.0
0.018
0.123
0.287
0.471
0.633
0.737
0.749
0.667
0.536
0.432
0.434
0.526
0.587
0.534
0.36
0.135
0.0
0.0
0.0
0.0
0.0
0.0
0.0
0.0
0.006
0.088
0.229
0.381
0.465
0.43
0.299
0.125
0.0
0.0
0.0
0.0
0.0
0.041
0.156
0.282
0.342
0.321
0.24
0.125
0.004
0.0
0.0
0.0
0.0
0.0
0.0
0.014
0.106
0.211
0.272
0.268
0.186
0.059
0.0
0.0
0.016
0.121
0.26
0.342
0.342
0.325
0.334
0.385
0.444
0.459
0.389
0.215
0.0
0.0
0.0
0.0
0.0
0.0
0.0
0.0
0.0
0.0
0.0
0.0
0.0
0.0
0.0
0.0
0.047
0.133
0.229
0.307
0.321
0.231
0.035
0.0
0.0
0.0
0.0
0.0
0.0
0.0
0.0
0.0
0.0
0.0
0.0
0.0
0.0
0.0
0.004
0.053
0.141
0.26
0.373
0.44
0.452
0.418
0.375
0.336
0.264
0.109
0.0
0.0
0.0
0.0
0.0
0.0
0.0
0.0
0.0
0.0
0.0
0.0
0.0
0.0
0.0
0.0
0.0
0.0
0.0
0.0
0.0
0.0
0.0
0.0
0.0
0.0
0.0
0.0
0.0
0.0
0.0
0.0
0.0
0.0
0.0
0.0
0.0
0.0
0.063
0.17
0.268
0.321
0.326
0.283
0.213
0.139
0.068
0.006
0.0
0.0
0.0
0.0
0.0
0.0
0.0
0.055
0.231
0.42
0.536
0.532
0.399
0.162
0.0
0.0
0.0
0.0
0.0
0.0
0.0
0.0
0.0
0.0
0.0
0.039
0.102
0.178
0.25
0.311
0.35
0.375
0.387
0.391
0.383
0.371
0.375
0.407
0.469
0.547
0.604
0.59
0.497
0.368
0.25
0.164
0.131
0.131
0.133
0.133
0.131
0.145
0.17
0.217
0.282
0.346
0.389
0.403
0.389
0.364
0.334
0.301
0.274
0.246
0.223
0.209
0.203
0.196
0.182
0.164
0.145
0.129
0.115
0.104
0.1
0.098
0.098
0.1
0.094
0.088
0.082
0.074
0.065
0.059
0.055
0.053
0.063
0.09
0.147
0.239
0.36
0.487
0.581
0.588
0.483
0.28
0.014
0.0
0.0
0.0
0.0
0.0
0.0
0.0
0.0
0.0
0.0
0.0
0.0
0.0
0.0
0.0
0.0
0.0
0.0
0.0
0.0
0.0
0.0
0.0
0.0
0.0
0.0
0.0
0.0
0.0
0.0
0.0
0.0
0.0
0.0
0.0
0.0
0.0
0.0
0.0
0.0
0.0
0.0
0.0
0.0
0.0
0.0
0.0
0.0
0.0
0.0
0.0
0.0
0.0
0.0
0.0
0.0
0.0
0.0
0.0
0.0
0.0
0.0
0.0
0.0
0.0
0.0
0.0
0.0
0.0
0.0
0.0
0.0
0.0
0.0
0.0
0.0
0.0
0.0
0.0
0.0
0.0
0.0
0.0
0.0
0.0
0.0
0.0
0.0
0.0
0.0
0.0
0.0
0.0
0.0
0.0
0.0
0.0
0.0
0.0
0.0
0.0
0.0
0.0
0.0
0.0
0.0
0.0
0.0
0.0
0.0
0.0
0.01
0.027
0.047
0.066
0.08
0.086
0.086
0.078
0.066
0.055
0.039
0.031
0.029
0.033
0.045
0.059
0.072
0.086
0.096
0.102
0.106
0.109
0.113
0.119
0.125
0.131
0.135
0.141
0.145
0.151
0.149
0.152
0.158
0.172
0.19
0.207
0.225
0.235
0.244
0.246
0.248
0.244
0.246
0.252
0.262
0.28
0.297
0.315
0.33
0.342
0.352
0.356
0.36
0.364
0.366
0.37
0.37
0.368
0.364
0.358
0.354
0.356
0.37
0.383
0.401
0.42
0.442
0.459
0.467
0.469
0.465
0.459
0.45
0.44
0.436
0.438
0.452
0.473
0.497
0.518
0.528
0.534
0.528
0.518
0.5
0.485
0.473
0.467
0.469
0.475
0.485
0.495
0.506
0.512
0.518
0.518
0.516
0.516
0.514
0.516
0.514
0.512
0.504
0.5
0.5
0.5
0.502
0.508
0.518
0.53
0.543
0.553
0.561
0.559
0.555
0.547
0.542
0.534
0.534
0.538
0.549
0.563
0.577
0.59
0.598
0.604
0.608
0.61
0.608
0.61
0.612
0.62
0.626
0.63
0.635
0.639
0.647
0.653
0.657
0.663
0.665
0.665
0.665
0.665
0.665
0.665
0.671
0.678
0.682
0.678
0.667
0.659
0.663
0.676
0.704
0.737
0.764
0.778
0.776
0.77
0.768
0.768
0.77
0.77
0.762
0.745
0.719
0.69
0.663
0.651
0.661
0.698
0.759
0.833
0.905
0.958
0.97
0.936
0.876
0.815
0.755
0.692
0.631
0.588
0.581
0.61
0.673
0.759
0.841
0.901
0.929
0.925
0.893
0.843
0.784
0.727
0.68
0.651
0.643
0.674
0.759
0.89
1.03
1.134
1.165
1.099
0.946
0.768
0.616
0.518
0.487
0.538
0.661
0.825
1.003
1.159
1.241
1.216
1.087
0.895
0.686
0.491
0.34
0.258
0.27
0.375
0.571
0.825
1.083
1.265
1.269
1.267
1.251
1.175
1.054
0.921
0.817
0.751
0.723
0.721
0.737
0.764
0.809
0.866
0.921
0.954
0.966
0.974
1.003
1.042
1.079
1.101
1.099
1.083
1.06
1.026
0.999
0.979
0.964
0.958
0.972
0.993
1.021
1.052
1.079
1.097
1.099
1.083
1.065
1.052
1.064
1.12
1.202
1.263
1.265
1.265
1.263
1.265
1.267
1.265
1.265
1.263
1.263
1.265
1.263
1.263
1.255
1.243
1.236
1.245
1.261
1.267
1.265
1.263
1.247
1.23
1.236
1.263
1.267
1.267
1.269
1.269
1.263
1.228
1.179
1.222
1.269
1.271
1.271
1.271
1.273
1.271
1.271
1.269
1.267
1.243
1.179
1.126
1.101
1.11
1.161
1.238
1.267
1.269
1.269
1.271
1.271
1.273
1.273
1.273
1.271
1.273
1.271
1.271
1.271
1.269
1.271
1.271
1.271
1.271
1.273
1.273
1.273
1.273
1.273
1.271
1.271
1.271
1.271
1.273
1.271
1.273
1.273
1.273
1.273
1.273
1.273
1.271
1.273
1.273
1.273
1.273
1.273
1.273
1.273
1.273
1.273
1.273
1.273
1.273
1.271
1.273
1.271
1.273
1.273
1.273
1.273
1.273
1.273
1.273
1.273
1.273
1.273
1.273
1.271
1.273
1.273
1.273
1.273
1.273
1.273
1.273
1.273
1.275
1.273
1.273
1.273
1.273
1.271
1.271
1.273
1.271
1.271
1.269
1.269
1.271
1.271
1.271
1.271
1.269
1.269
1.261
1.232
1.198
1.202
1.21
1.196
1.15
1.048
0.913
0.79
0.719
0.764
1.017
1.271
1.271
1.271
1.271
1.269
1.263
1.239
1.181
1.097
0.995
0.909
0.884
0.942
1.052
1.148
1.212
1.243
1.265
1.267
1.265
1.259
1.177
0.991
0.774
0.663
0.714
0.899
1.152
1.269
1.267
1.216
1.03
0.778
0.581
0.504
0.526
0.633
0.833
1.069
1.269
1.271
1.271
1.265
1.159
0.837
0.403
0.049
0.0
0.08
0.373
0.761
1.14
1.271
1.271
1.271
1.269
1.228
1.019
0.671
0.291
0.057
0.074
0.354
0.784
1.208
1.271
1.271
1.269
1.269
1.236
1.103
0.972
0.868
0.796
0.727
0.602
0.479
0.459
0.622
0.948
1.267
1.271
1.271
1.271
1.271
1.271
1.267
1.173
0.942
0.702
0.543
0.522
0.641
0.866
1.107
1.267
1.269
1.269
1.267
1.265
1.204
1.007
0.764
0.602
0.612
0.827
1.234
1.271
1.273
1.273
1.273
1.273
1.273
1.271
1.271
1.269
1.269
1.269
1.269
1.271
1.269
1.269
1.269
1.271
1.273
1.275
1.273
1.273
1.273
1.271
1.273
1.273
1.273
1.273
1.271
1.271
1.271
1.271
1.271
1.269
1.267
1.259
1.228
1.177
1.116
1.095
1.196
1.269
1.271
1.273
1.273
1.273
1.273
1.273
1.273
1.273
1.273
1.273
1.271
1.269
1.269
1.271
1.271
1.271
1.271
1.269
1.271
1.269
1.271
1.271
1.273
1.273
1.273
1.273
1.273
1.271
1.273
1.273
1.273
1.273
1.271
1.271
1.271
1.271
1.269
1.269
1.271
1.269
1.269
1.263
1.232
1.15
1.071
1.062
1.13
1.23
1.257
1.21
1.095
1.021
1.052
1.155
1.259
1.265
1.265
1.263
1.263
1.261
1.251
1.208
1.153
1.097
1.03
0.964
0.909
0.891
0.909
0.919
0.903
0.866
0.841
0.874
0.978
1.118
1.226
1.23
1.107
0.884
0.643
0.438
0.305
0.272
0.334
0.448
0.571
0.69
0.778
0.813
0.755
0.635
0.51
0.428
0.409
0.457
0.559
0.674
0.761
0.804
0.78
0.692
0.612
0.645
0.825
1.067
1.195
1.097
0.794
0.409
0.061
0.0
0.0
0.113
0.303
0.436
0.502
0.53
0.543
0.526
0.448
0.325
0.199
0.102
0.065
0.094
0.182
0.309
0.457
0.575
0.577
0.454
0.25
0.045
0.0
0.0
0.0
0.0
0.0
0.0
0.014
0.057
0.113
0.162
0.188
0.19
0.199
0.237
0.283
0.297
0.233
0.066
0.0
0.0
0.0
0.0
0.0
0.0
0.0
0.023
0.109
0.207
0.274
0.291
0.242
0.108
0.0
0.0
0.0
0.0
0.0
0.0
0.0
0.0
0.0
0.0
0.0
0.0
0.0
0.0
0.0
0.0
0.0
0.0
0.0
0.0
0.0
0.0
0.0
0.0
0.0
0.0
0.0
0.0
0.0
0.0
0.0
0.0
0.0
0.0
0.0
0.0
0.0
0.0
0.0
0.0
0.0
0.0
0.0
0.0
0.0
0.0
0.0
0.0
0.0
0.0
0.0
0.0
0.0
0.0
0.0
0.0
0.0
0.0
0.0
0.0
0.0
0.0
0.0
0.0
0.0
0.0
0.0
0.0
0.0
0.0
0.0
0.0
0.0
0.0
0.0
0.0
0.0
0.0
0.0
0.0
0.0
0.0
0.0
0.0
0.0
0.0
0.0
0.0
0.0
0.0
0.0
0.0
0.0
0.0
0.0
0.0
0.0
0.0
0.0
0.0
0.0
0.0
0.0
0.0
0.0
0.0
0.0
0.0
0.0
0.0
0.0
0.0
0.0
0.0
0.0
0.0
0.0
0.0
0.0
0.0
0.0
0.0
0.0
0.0
0.0
0.0
0.0
0.0
0.0
0.0
0.0
0.0
0.0
0.0
0.0
0.0
0.0
0.0
0.0
0.0
0.0
0.0
0.0
0.0
0.0
0.0
0.0
0.0
0.0
0.0
0.0
0.0
0.0
0.0
0.0
0.0
0.0
0.0
0.0
0.0
0.0
0.0
0.0
0.0
0.0
0.0
0.0
0.0
0.0
0.0
0.0
0.0
0.0
0.0
0.0
0.0
0.0
0.0
0.063
0.184
0.346
0.516
0.63
0.628
0.497
0.27
0.0
0.0
0.0
0.0
0.0
0.0
0.0
0.0
0.0
0.0
0.0
0.0
0.0
0.0
0.0
0.0
0.0
0.0
0.0
0.0
0.0
0.0
0.0
0.0
0.0
0.0
0.0
0.0
0.0
0.0
0.0
0.0
0.0
0.0
0.0
0.0
0.006
0.016
0.025
0.035
0.045
0.055
0.063
0.066
0.072
0.074
0.074
0.068
0.068
0.066
0.07
0.078
0.092
0.109
0.125
0.139
0.145
0.145
0.137
0.129
0.123
0.119
0.113
0.115
0.121
0.127
0.133
0.135
0.135
0.129
0.125
0.117
0.111
0.106
0.106
0.111
0.117
0.121
0.123
0.121
0.121
0.121
0.121
0.121
0.119
0.115
0.108
0.1
0.086
0.074
0.07
0.078
0.098
0.119
0.135
0.151
0.168
0.19
0.199
0.196
0.182
0.158
0.133
0.109
0.102
0.109
0.135
0.174
0.223
0.264
0.297
0.315
0.319
0.309
0.289
0.27
0.252
0.242
0.244
0.256
0.272
0.285
0.299
0.313
0.328
0.348
0.37
0.393
0.413
0.426
0.428
0.42
0.407
0.397
0.389
0.389
0.399
0.411
0.426
0.448
0.471
0.489
0.502
0.504
0.5
0.489
0.475
0.463
0.452
0.448
0.452
0.467
0.487
0.506
0.526
0.54
0.549
0.557
0.559
0.561
0.561
0.565
0.573
0.583
0.592
0.6
0.608
0.618
0.628
0.633
0.639
0.645
0.651
0.655
0.655
0.651
0.649
0.647
0.653
0.661
0.674
0.694
0.716
0.741
0.766
0.784
0.8
0.804
0.8
0.79
0.772
0.755
0.741
0.727
0.723
0.727
0.737
0.749
0.764
0.778
0.794
0.804
0.811
0.815
0.819
0.823
0.823
0.823
0.821
0.815
0.813
0.809
0.807
0.809
0.815
0.827
0.841
0.854
0.866
0.87
0.864
0.854
0.845
0.835
0.831
0.833
0.841
0.854
0.868
0.88
0.884
0.884
0.88
0.87
0.856
0.85
0.852
0.87
0.893
0.919
0.94
0.954
0.958
0.954
0.942
0.925
0.907
0.895
0.891
0.895
0.903
0.915
0.927
0.94
0.95
0.958
0.96
0.958
0.958
0.956
0.954
0.952
0.95
0.946
0.946
0.946
0.95
0.958
0.968
0.979
0.995
1.005
1.007
1.005
0.997
0.991
0.987
0.991
1.001
1.011
1.021
1.022
1.021
1.013
1.001
0.989
0.985
0.991
0.999
1.013
1.03
1.042
1.048
1.046
1.044
1.046
1.052
1.052
1.04
1.03
1.024
1.017
0.991
0.954
0.919
0.911
0.936
0.985
1.046
1.101
1.138
1.155
1.171
1.173
1.161
1.128
1.073
0.999
0.923
0.874
0.878
0.936
1.03
1.142
1.243
1.265
1.261
1.226
1.13
1.026
0.942
0.899
0.903
0.938
0.991
1.085
1.232
1.269
1.269
1.269
1.267
1.263
1.259
1.249
1.236
1.218
1.189
1.146
1.093
1.056
1.048
1.073
1.109
1.118
1.079
1.013
0.978
1.017
1.126
1.249
1.267
1.265
1.265
1.265
1.265
1.265
1.265
1.259
1.245
1.234
1.232
1.236
1.23
1.195
1.15
1.11
1.099
1.126
1.173
1.234
1.265
1.267
1.267
1.269
1.269
1.267
1.267
1.267
1.265
1.247
1.191
1.126
1.107
1.161
1.265
1.271
1.269
1.271
1.271
1.271
1.271
1.271
1.271
1.271
1.271
1.267
1.267
1.263
1.261
1.265
1.267
1.269
1.269
1.271
1.269
1.269
1.271
1.271
1.271
1.271
1.273
1.271
1.271
1.273
1.273
1.273
1.273
1.273
1.271
1.271
1.273
1.271
1.271
1.271
1.271
1.271
1.271
1.271
1.271
1.273
1.273
1.273
1.273
1.273
1.273
1.273
1.273
1.271
1.271
1.271
1.271
1.273
1.273
1.273
1.273
1.273
1.275
1.273
1.273
1.273
1.273
1.273
1.271
1.273
1.273
1.273
1.273
1.273
1.273
1.273
1.271
1.271
1.271
1.273
1.273
1.273
1.273
1.273
1.273
1.273
1.273
1.273
1.273
1.273
1.273
1.273
1.273
1.273
1.273
1.273
1.273
1.273
1.273
1.273
1.273
1.273
1.273
1.275
1.273
1.275
1.273
1.273
1.273
1.273
1.273
1.273
1.273
1.273
1.273
1.273
1.273
1.273
1.273
1.273
1.273
1.273
1.273
1.273
1.273
1.273
1.273
1.273
1.273
1.273
1.273
1.273
1.273
1.273
1.273
1.273
1.273
1.275
1.275
1.273
1.275
1.273
1.273
1.273
1.275
1.273
1.273
1.273
1.273
1.273
1.273
1.273
1.273
1.273
1.273
1.273
1.273
1.273
1.271
1.271
1.269
1.269
1.269
1.267
1.269
1.269
1.269
1.269
1.269
1.267
1.269
1.271
1.271
1.271
1.269
1.269
1.265
1.265
1.269
1.267
1.267
1.267
1.269
1.269
1.271
1.271
1.271
1.269
1.261
1.175
0.995
0.704
0.358
0.135
0.098
0.233
0.536
0.952
1.271
1.271
1.273
1.269
1.228
1.044
0.829
0.643
0.495
0.43
0.502
0.712
1.026
1.267
1.271
1.269
1.265
1.255
1.218
1.11
0.913
0.674
0.51
0.452
0.547
0.852
1.261
1.273
1.271
1.271
1.261
1.161
0.97
0.727
0.442
0.194
0.063
0.063
0.192
0.395
0.59
0.743
0.874
1.009
1.138
1.224
1.245
1.257
1.269
1.271
1.271
1.271
1.265
1.067
0.61
0.082
0.0
0.0
0.0
0.055
0.274
0.565
0.956
1.271
1.271
1.271
1.267
1.132
0.891
0.678
0.532
0.414
0.334
0.358
0.575
0.989
1.271
1.273
1.271
1.269
1.267
1.263
1.22
1.099
0.923
0.786
0.798
0.946
1.212
1.271
1.271
1.267
1.218
1.038
0.872
0.802
0.809
0.8
0.725
0.698
0.798
1.032
1.263
1.267
1.196
1.04
0.917
0.856
0.884
1.054
1.271
1.273
1.273
1.271
1.269
1.247
1.105
0.925
0.817
0.848
1.022
1.269
1.271
1.273
1.271
1.271
1.263
1.206
1.146
1.146
1.202
1.267
1.269
1.269
1.269
1.267
1.265
1.257
1.263
1.269
1.271
1.273
1.273
1.269
1.232
1.038
0.841
0.743
0.749
0.817
0.94
1.107
1.263
1.269
1.269
1.269
1.271
1.269
1.255
1.128
1.003
0.929
0.899
0.882
0.874
0.858
0.87
0.936
1.085
1.267
1.271
1.271
1.267
1.238
1.157
1.12
1.2
1.269
1.271
1.269
1.263
1.202
1.05
0.868
0.716
0.618
0.579
0.62
0.761
0.966
1.155
1.255
1.263
1.259
1.251
1.193
1.022
0.761
0.485
0.285
0.221
0.358
0.698
1.136
1.271
1.271
1.265
1.167
0.95
0.686
0.444
0.285
0.28
0.414
0.643
0.88
1.022
1.044
0.954
0.782
0.571
0.395
0.303
0.326
0.459
0.682
0.948
1.2
1.267
1.263
1.173
0.987
0.813
0.712
0.639
0.528
0.375
0.231
0.117
0.045
0.012
0.016
0.074
0.188
0.317
0.438
0.514
0.52
0.452
0.334
0.219
0.145
0.102
0.049
0.0
0.0
0.02
0.07
0.115
0.115
0.088
0.078
0.104
0.158
0.205
0.227
0.229
0.227
0.223
0.201
0.152
0.082
0.01
0.0
0.014
0.102
0.203
0.24
0.125
0.0
0.0
0.0
0.0
0.0
0.0
0.0
0.0
0.0
0.0
0.0
0.0
0.0
0.0
0.0
0.0
0.0
0.0
0.0
0.0
0.0
0.0
0.0
0.0
0.0
0.0
0.0
0.0
0.0
0.0
0.0
0.0
0.0
0.0
0.0
0.0
0.0
0.0
0.0
0.0
0.0
0.0
0.0
0.0
0.0
0.0
0.0
0.0
0.0
0.0
0.0
0.0
0.0
0.0
0.0
0.0
0.0
0.0
0.0
0.0
0.0
0.0
0.0
0.0
0.0
0.0
0.0
0.0
0.0
0.0
0.0
0.0
0.0
0.0
0.0
0.0
0.0
0.0
0.0
0.0
0.0
0.0
0.0
0.0
0.0
0.0
0.0
0.0
0.0
0.0
0.0
0.0
0.0
0.0
0.0
0.0
0.0
0.0
0.0
0.0
0.0
0.0
0.0
0.0
0.0
0.0
0.0
0.0
0.0
0.0
0.0
0.0
0.0
0.0
0.0
0.0
0.0
0.0
0.0
0.0
0.0
0.0
0.0
0.0
0.0
0.0
0.0
0.0
0.0
0.0
0.0
0.0
0.0
0.0
0.0
0.0
0.0
0.0
0.0
0.0
0.0
0.0
0.0
0.0
0.0
0.0
0.0
0.0
0.0
0.0
0.0
0.0
0.0
0.0
0.0
0.0
0.0
0.0
0.0
0.0
0.014
0.131
0.323
0.526
0.645
0.606
0.414
0.129
0.0
0.0
0.0
0.0
0.0
0.0
0.0
0.0
0.0
0.0
0.0
0.0
0.037
0.108
0.197
0.282
0.348
0.405
0.457
0.51
0.567
0.616
0.626
0.553
0.387
0.158
0.0
0.0
0.0
0.0
0.0
0.0
0.0
0.0
0.008
0.082
0.16
0.201
0.199
0.188
0.172
0.141
0.09
0.02
0.0
0.0
0.0
0.0
0.0
0.0
0.0
0.0
0.0
0.0
0.014
0.035
0.057
0.07
0.078
0.076
0.068
0.063
0.072
0.1
0.147
0.197
0.239
0.266
0.282
0.289
0.287
0.28
0.27
0.26
0.233
0.18
0.094
0.0
0.0
0.0
0.0
0.0
0.0
0.0
0.0
0.0
0.0
0.0
0.0
0.0
0.0
0.0
0.0
0.002
0.016
0.033
0.053
0.08
0.102
0.117
0.123
0.117
0.1
0.08
0.057
0.035
0.018
0.01
0.012
0.023
0.043
0.063
0.078
0.088
0.098
0.104
0.106
0.102
0.096
0.094
0.108
0.139
0.197
0.291
0.401
0.502
0.573
0.585
0.528
0.399
0.221
0.008
0.0
0.0
0.0
0.0
0.0
0.0
0.0
0.0
0.0
0.0
0.0
0.027
0.074
0.127
0.18
0.227
0.258
0.274
0.276
0.258
0.231
0.203
0.174
0.151
0.133
0.127
0.135
0.151
0.174
0.201
0.229
0.254
0.276
0.287
0.289
0.282
0.268
0.254
0.244
0.239
0.239
0.248
0.266
0.285
0.305
0.325
0.342
0.36
0.373
0.383
0.389
0.393
0.393
0.395
0.397
0.401
0.405
0.413
0.424
0.434
0.446
0.457
0.463
0.467
0.471
0.483
0.497
0.51
0.524
0.534
0.542
0.543
0.542
0.534
0.522
0.506
0.491
0.483
0.479
0.483
0.495
0.516
0.547
0.577
0.598
0.61
0.612
0.612
0.6
0.587
0.573
0.565
0.565
0.577
0.592
0.614
0.633
0.649
0.657
0.657
0.649
0.635
0.624
0.608
0.6
0.596
0.602
0.614
0.631
0.651
0.671
0.682
0.688
0.69
0.688
0.68
0.674
0.669
0.667
0.665
0.665
0.665
0.667
0.674
0.68
0.688
0.692
0.696
0.698
0.698
0.7
0.704
0.704
0.704
0.702
0.702
0.702
0.7
0.7
0.704
0.714
0.721
0.731
0.737
0.743
0.749
0.749
0.747
0.745
0.743
0.747
0.755
0.761
0.768
0.774
0.776
0.78
0.78
0.782
0.78
0.782
0.786
0.794
0.8
0.804
0.805
0.804
0.804
0.802
0.8
0.8
0.804
0.811
0.819
0.827
0.833
0.833
0.831
0.827
0.825
0.821
0.821
0.825
0.835
0.847
0.862
0.876
0.886
0.884
0.874
0.862
0.856
0.854
0.862
0.872
0.884
0.886
0.888
0.886
0.886
0.888
0.89
0.893
0.901
0.909
0.921
0.931
0.938
0.944
0.942
0.935
0.913
0.886
0.856
0.847
0.866
0.911
0.968
1.028
1.079
1.109
1.109
1.069
0.999
0.915
0.839
0.792
0.79
0.833
0.907
0.993
1.073
1.128
1.148
1.138
1.105
1.042
0.954
0.866
0.811
0.805
0.852
0.931
1.019
1.087
1.12
1.11
1.073
1.028
0.983
0.956
0.952
0.97
1.003
1.038
1.071
1.093
1.093
1.062
0.995
0.921
0.864
0.843
0.866
0.935
1.044
1.159
1.245
1.257
1.232
1.153
1.042
0.921
0.809
0.741
0.719
0.735
0.776
0.841
0.942
1.079
1.232
1.269
1.269
1.261
1.196
1.069
0.925
0.807
0.757
0.784
0.878
1.013
1.159
1.263
1.267
1.265
1.265
1.261
1.239
1.179
1.101
1.005
0.901
0.805
0.729
0.688
0.704
0.782
0.913
1.073
1.224
1.265
1.263
1.224
1.14
1.058
1.021
1.04
1.083
1.109
1.099
1.065
1.019
0.985
1.011
1.087
1.198
1.265
1.267
1.263
1.247
1.216
1.206
1.228
1.247
1.232
1.165
1.067
0.976
0.929
0.942
1.017
1.132
1.245
1.267
1.267
1.263
1.257
1.259
1.265
1.267
1.267
1.269
1.269
1.269
1.269
1.269
1.269
1.269
1.269
1.271
1.269
1.267
1.265
1.261
1.261
1.265
1.265
1.265
1.263
1.263
1.255
1.218
1.171
1.206
1.269
1.271
1.271
1.271
1.267
1.255
1.196
1.142
1.14
1.214
1.269
1.271
1.273
1.273
1.271
1.271
1.269
1.267
1.259
1.22
1.148
1.064
0.985
0.927
0.915
0.993
1.183
1.271
1.271
1.273
1.271
1.273
1.271
1.269
1.269
1.267
1.269
1.271
1.271
1.271
1.271
1.271
1.271
1.273
1.271
1.271
1.267
1.261
1.22
1.171
1.179
1.253
1.269
1.271
1.271
1.271
1.273
1.271
1.273
1.273
1.273
1.273
1.273
1.273
1.273
1.271
1.271
1.269
1.269
1.269
1.271
1.273
1.273
1.273
1.273
1.273
1.273
1.273
1.273
1.273
1.273
1.271
1.271
1.271
1.273
1.273
1.273
1.273
1.273
1.273
1.273
1.273
1.273
1.273
1.273
1.273
1.273
1.273
1.273
1.273
1.273
1.275
1.273
1.273
1.273
1.273
1.273
1.273
1.273
1.273
1.273
1.275
1.273
1.273
1.273
1.273
1.273
1.275
1.273
1.273
1.273
1.273
1.273
1.271
1.271
1.271
1.271
1.269
1.271
1.271
1.271
1.273
1.273
1.275
1.273
1.273
1.271
1.273
1.273
1.271
1.271
1.271
1.271
1.271
1.271
1.271
1.273
1.271
1.273
1.273
1.271
1.271
1.273
1.273
1.271
1.271
1.269
1.269
1.271
1.271
1.271
1.271
1.273
1.269
1.251
1.228
1.267
1.269
1.269
1.269
1.269
1.269
1.269
1.271
1.263
1.173
1.015
0.852
0.71
0.592
0.543
0.639
0.919
1.269
1.273
1.271
1.271
1.271
1.267
1.23
1.128
1.064
1.109
1.261
1.271
1.271
1.273
1.273
1.273
1.271
1.269
1.263
1.257
1.234
1.263
1.269
1.271
1.273
1.271
1.269
1.271
1.271
1.271
1.271
1.271
1.271
1.269
1.263
1.267
1.271
1.273
1.273
1.271
1.269
1.267
1.267
1.265
1.259
1.267
1.271
1.273
1.273
1.271
1.271
1.267
1.267
1.269
1.269
1.271
1.271
1.273
1.273
1.273
1.273
1.271
1.271
1.273
1.273
1.271
1.271
1.269
1.267
1.267
1.269
1.271
1.271
1.271
1.265
1.22
1.114
1.065
1.214
1.273
1.273
1.271
1.271
1.265
1.243
1.245
1.257
1.255
1.198
1.097
1.058
1.132
1.255
1.267
1.269
1.269
1.271
1.271
1.267
1.181
0.909
0.604
0.356
0.24
0.305
0.534
0.854
1.175
1.269
1.269
1.263
1.245
1.179
1.064
0.915
0.761
0.602
0.479
0.422
0.436
0.485
0.53
0.553
0.514
0.43
0.334
0.297
0.348
0.483
0.671
0.854
0.985
1.022
0.954
0.794
0.559
0.328
0.141
0.014
0.0
0.0
0.0
0.084
0.283
0.551
0.837
1.058
1.187
1.191
1.065
0.856
0.594
0.297
0.0
0.0
0.0
0.0
0.0
0.057
0.203
0.366
0.457
0.45
0.391
0.323
0.242
0.135
0.012
0.0
0.0
0.0
0.0
0.0
0.0
0.0
0.0
0.0
0.041
0.168
0.28
0.293
0.188
0.029
0.0
0.0
0.0
0.018
0.027
0.0
0.0
0.0
0.0
0.0
0.0
0.0
0.0
0.0
0.0
0.0
0.0
0.0
0.0
0.0
0.0
0.0
0.0
0.0
0.0
0.0
0.0
0.0
0.0
0.0
0.0
0.0
0.0
0.0
0.0
0.0
0.0
0.0
0.0
0.0
0.0
0.0
0.0
0.0
0.0
0.0
0.0
0.0
0.0
0.0
0.0
0.0
0.0
0.0
0.0
0.0
0.0
0.0
0.0
0.0
0.0
0.0
0.0
0.0
0.0
0.0
0.0
0.0
0.0
0.0
0.0
0.0
0.0
0.0
0.0
0.0
0.0
0.0
0.0
0.0
0.0
0.0
0.0
0.0
0.0
0.0
0.0
0.0
0.0
0.0
0.0
0.0
0.0
0.0
0.0
0.0
0.0
0.0
0.0
0.0
0.0
0.0
0.0
0.0
0.0
0.0
0.0
0.0
0.0
0.0
0.0
0.0
0.0
0.0
0.0
0.0
0.0
0.0
0.0
0.0
0.0
0.0
0.0
0.0
0.0
0.0
0.0
0.0
0.0
0.0
0.0
0.0
0.0
0.0
0.0
0.0
0.0
0.0
0.0
0.0
0.0
0.0
0.0
0.0
0.0
0.0
0.0
0.0
0.0
0.0
0.0
0.0
0.0
0.0
0.0
0.0
0.0
0.0
0.0
0.0
0.0
0.0
0.0
0.0
0.0
0.0
0.0
0.0
0.0
0.0
0.0
0.0
0.0
0.0
0.0
0.0
0.0
0.0
0.0
0.0
0.0
0.0
0.0
0.0
0.0
0.0
0.0
0.0
0.0
0.0
0.0
0.0
0.0
0.0
0.0
0.0
0.0
0.0
0.0
0.0
0.0
0.0
0.0
0.0
0.0
0.0
0.0
0.0
0.0
0.0
0.0
0.0
0.0
0.0
0.0
0.0
0.0
0.0
0.0
0.0
0.0
0.0
0.0
0.0
0.0
0.0
0.0
0.0
0.0
0.0
0.0
0.0
0.0
0.0
0.0
0.0
0.0
0.0
0.0
0.0
0.0
0.0
0.0
0.0
0.0
0.0
0.0
0.0
0.0
0.01
0.053
0.084
0.072
0.004
0.0
0.0
0.0
0.0
0.0
0.0
0.0
0.0
0.0
0.0
0.0
0.0
0.0
0.0
0.0
0.0
0.0
0.0
0.0
0.0
0.0
0.0
0.0
0.0
0.0
0.0
0.0
0.0
0.0
0.0
0.0
0.0
0.0
0.0
0.0
0.0
0.0
0.0
0.0
0.0
0.0
0.0
0.0
0.0
0.0
0.0
0.0
0.0
0.0
0.0
0.0
0.0
0.0
0.0
0.0
0.0
0.0
0.0
0.0
0.0
0.0
0.0
0.0
0.0
0.004
0.023
0.053
0.09
0.125
0.158
0.184
0.192
0.186
0.168
0.147
0.121
0.102
0.086
0.082
0.088
0.104
0.129
0.16
0.192
0.227
0.252
0.262
0.254
0.235
0.207
0.184
0.182
0.199
0.233
0.27
0.307
0.338
0.36
0.368
0.362
0.35
0.338
0.33
0.328
0.332
0.342
0.354
0.37
0.391
0.413
0.434
0.457
0.477
0.493
0.502
0.502
0.5
0.499
0.497
0.495
0.5
0.51
0.534
0.567
0.598
0.628
0.647
0.655
0.653
0.645
0.631
0.62
0.616
0.622
0.635
0.657
0.678
0.696
0.71
0.716
0.716
0.712
0.704
0.7
0.698
0.702
0.71
0.719
0.727
0.739
0.753
0.766
0.78
0.792
0.802
0.813
0.821
0.821
0.817
0.809
0.802
0.796
0.794
0.798
0.805
0.817
0.835
0.854
0.872
0.882
0.886
0.882
0.878
0.868
0.856
0.85
0.852
0.862
0.878
0.895
0.915
0.927
0.935
0.933
0.925
0.911
0.895
0.884
0.88
0.876
0.878
0.882
0.888
0.895
0.901
0.905
0.905
0.901
0.899
0.895
0.89
0.88
0.868
0.858
0.852
0.848
0.85
0.86
0.87
0.886
0.897
0.901
0.897
0.886
0.872
0.852
0.837
0.829
0.825
0.831
0.847
0.862
0.876
0.884
0.882
0.872
0.86
0.848
0.841
0.845
0.858
0.88
0.903
0.921
0.933
0.933
0.925
0.913
0.895
0.882
0.87
0.87
0.878
0.891
0.911
0.925
0.936
0.944
0.946
0.942
0.938
0.935
0.931
0.933
0.936
0.936
0.938
0.938
0.942
0.944
0.946
0.948
0.954
0.96
0.966
0.972
0.974
0.972
0.968
0.962
0.958
0.952
0.95
0.952
0.962
0.976
0.989
1.003
1.009
1.011
1.009
0.999
0.989
0.979
0.976
0.976
0.981
0.991
1.001
1.005
1.007
1.003
0.997
0.993
0.993
1.001
1.011
1.024
1.034
1.04
1.044
1.042
1.04
1.032
1.017
0.997
0.972
0.948
0.935
0.933
0.954
0.991
1.042
1.085
1.11
1.11
1.087
1.05
1.013
0.979
0.96
0.956
0.962
0.979
1.001
1.019
1.024
1.017
1.001
0.983
0.964
0.95
0.948
0.96
0.979
0.995
1.005
1.011
1.022
1.05
1.093
1.138
1.169
1.161
1.11
1.034
0.954
0.897
0.874
0.876
0.888
0.899
0.919
0.962
1.03
1.116
1.208
1.263
1.263
1.251
1.212
1.146
1.064
0.979
0.911
0.87
0.862
0.888
0.94
1.009
1.085
1.155
1.204
1.228
1.222
1.191
1.142
1.085
1.021
0.958
0.907
0.872
0.856
0.864
0.886
0.911
0.929
0.929
0.919
0.909
0.913
0.94
0.999
1.079
1.159
1.214
1.22
1.175
1.093
0.993
0.895
0.813
0.759
0.761
0.839
0.979
1.142
1.263
1.267
1.263
1.249
1.2
1.114
1.011
0.911
0.829
0.772
0.745
0.755
0.802
0.891
1.009
1.134
1.238
1.263
1.259
1.224
1.144
1.028
0.897
0.774
0.661
0.575
0.52
0.5
0.54
0.665
0.88
1.153
1.269
1.271
1.269
1.269
1.267
1.253
1.169
1.034
0.891
0.78
0.733
0.757
0.831
0.923
1.001
1.038
1.032
1.011
0.987
0.97
0.972
0.999
1.038
1.079
1.093
1.062
0.999
0.94
0.901
0.89
0.897
0.933
1.007
1.107
1.206
1.257
1.257
1.222
1.14
1.022
0.888
0.762
0.69
0.706
0.811
0.983
1.177
1.267
1.267
1.261
1.22
1.114
0.983
0.864
0.792
0.794
0.868
0.983
1.101
1.189
1.226
1.202
1.128
1.013
0.88
0.768
0.71
0.741
0.874
1.093
1.269
1.269
1.269
1.267
1.261
1.236
1.177
1.103
1.026
0.95
0.891
0.852
0.848
0.909
1.038
1.208
1.269
1.269
1.269
1.269
1.267
1.267
1.269
1.267
1.269
1.267
1.261
1.187
1.024
0.823
0.659
0.583
0.6
0.698
0.847
1.024
1.222
1.269
1.269
1.269
1.269
1.265
1.212
1.075
0.968
0.956
1.022
1.132
1.23
1.241
1.146
1.011
0.89
0.819
0.843
0.952
1.126
1.267
1.269
1.269
1.269
1.267
1.259
1.238
1.212
1.21
1.23
1.238
1.214
1.15
1.013
0.807
0.608
0.51
0.545
0.688
0.903
1.167
1.271
1.271
1.271
1.269
1.267
1.234
1.079
0.848
0.641
0.563
0.655
0.911
1.259
1.271
1.271
1.271
1.273
1.273
1.271
1.271
1.269
1.265
1.232
1.126
0.978
0.839
0.798
0.931
1.247
1.273
1.273
1.273
1.273
1.273
1.273
1.273
1.273
1.273
1.271
1.271
1.271
1.273
1.273
1.271
1.273
1.273
1.273
1.271
1.269
1.269
1.269
1.269
1.269
1.269
1.269
1.269
1.271
1.271
1.271
1.271
1.271
1.271
1.269
1.269
1.269
1.269
1.271
1.271
1.273
1.273
1.273
1.273
1.273
1.273
1.273
1.273
1.273
1.273
1.271
1.271
1.271
1.273
1.273
1.273
1.273
1.273
1.273
1.273
1.273
1.273
1.273
1.273
1.273
1.273
1.273
1.271
1.271
1.271
1.271
1.271
1.273
1.273
1.273
1.273
1.271
1.271
1.273
1.273
1.273
1.273
1.273
1.273
1.273
1.273
1.273
1.273
1.273
1.273
1.273
1.273
1.273
1.273
1.273
1.273
1.271
1.269
1.267
1.271
1.271
1.273
1.271
1.271
1.269
1.267
1.267
1.265
1.261
1.234
1.196
1.198
1.263
1.269
1.271
1.271
1.273
1.271
1.273
1.273
1.273
1.273
1.271
1.263
1.173
1.032
0.917
0.872
0.903
0.993
1.124
1.263
1.271
1.271
1.271
1.271
1.271
1.271
1.271
1.271
1.273
1.273
1.273
1.273
1.273
1.273
1.273
1.273
1.273
1.273
1.273
1.273
1.271
1.271
1.271
1.273
1.273
1.275
1.273
1.273
1.273
1.273
1.273
1.273
1.273
1.273
1.273
1.273
1.273
1.271
1.269
1.269
1.271
1.271
1.271
1.269
1.271
1.271
1.273
1.271
1.271
1.273
1.273
1.273
1.271
1.269
1.269
1.269
1.271
1.273
1.271
1.271
1.269
1.265
1.265
1.267
1.269
1.271
1.271
1.269
1.267
1.263
1.212
1.099
0.96
0.845
0.827
0.895
1.009
1.128
1.255
1.267
1.265
1.204
0.968
0.63
0.293
0.059
0.0
0.074
0.315
0.678
1.118
1.271
1.271
1.269
1.261
1.13
0.878
0.583
0.295
0.059
0.0
0.0
0.092
0.33
0.63
0.884
1.003
0.968
0.864
0.804
0.829
0.897
0.876
0.708
0.45
0.17
0.0
0.0
0.0
0.0
0.0
0.0
0.0
0.0
0.0
0.0
0.0
0.0
0.037
0.127
0.242
0.352
0.403
0.33
0.121
0.0
0.0
0.0
0.0
0.0
0.0
0.0
0.0
0.0
0.0
0.0
0.0
0.0
0.0
0.0
0.0
0.0
0.0
0.0
0.0
0.0
0.0
0.0
0.0
0.0
0.0
0.0
0.0
0.0
0.0
0.0
0.0
0.0
0.0
0.0
0.0
0.0
0.0
0.0
0.0
0.0
0.0
0.0
0.0
0.0
0.0
0.0
0.0
0.0
0.0
0.0
0.0
0.0
0.0
0.0
0.0
0.0
0.0
0.0
0.0
0.0
0.0
0.0
0.0
0.0
0.0
0.0
0.0
0.0
0.0
0.0
0.0
0.0
0.0
0.0
0.0
0.0
0.0
0.0
0.0
0.0
0.0
0.0
0.0
0.0
0.0
0.0
0.0
0.0
0.0
0.0
0.0
0.0
0.0
0.0
0.0
0.0
0.0
0.0
0.0
0.0
0.0
0.0
0.0
0.0
0.0
0.0
0.0
0.0
0.0
0.0
0.0
0.0
0.0
0.0
0.0
0.0
0.0
0.0
0.0
0.0
0.0
0.0
0.0
0.0
0.0
0.0
0.0
0.0
0.0
0.0
0.0
0.0
0.0
0.0
0.0
0.0
0.0
0.0
0.0
0.0
0.0
0.0
0.0
0.0
0.0
0.0
0.0
0.0
0.0
0.0
0.0
0.0
0.0
0.0
0.0
0.0
0.0
0.0
0.0
0.0
0.0
0.0
0.0
0.0
0.0
0.0
0.0
0.0
0.0
0.0
0.0
0.0
0.0
0.0
0.0
0.0
0.0
0.0
0.0
0.0
0.0
0.014
0.119
0.237
0.276
0.197
0.02
0.0
0.0
0.0
0.0
0.0
0.0
0.0
0.0
0.0
0.0
0.0
0.0
0.0
0.0
0.0
0.029
0.102
0.205
0.305
0.36
0.323
0.196
0.02
0.0
0.0
0.0
0.0
0.0
0.0
0.016
0.066
0.141
0.217
0.287
0.336
0.364
0.37
0.368
0.387
0.446
0.538
0.639
0.714
0.721
0.635
0.457
0.25
0.072
0.0
0.0
0.0
0.0
0.0
0.0
0.0
0.0
0.0
0.006
0.045
0.106
0.176
0.256
0.342
0.426
0.497
0.547
0.571
0.563
0.516
0.436
0.336
0.237
0.152
0.098
0.08
0.094
0.135
0.19
0.248
0.297
0.33
0.342
0.326
0.293
0.246
0.194
0.141
0.1
0.072
0.066
0.08
0.123
0.19
0.278
0.383
0.487
0.571
0.608
0.583
0.485
0.315
0.086
0.0
0.0
0.0
0.0
0.0
0.0
0.0
0.0
0.0
0.0
0.0
0.0
0.0
0.0
0.0
0.0
0.0
0.0
0.0
0.0
0.0
0.0
0.0
0.0
0.01
0.022
0.035
0.043
0.047
0.041
0.029
0.014
0.0
0.0
0.0
0.0
0.0
0.0
0.0
0.0
0.0
0.0
0.0
0.002
0.006
0.01
0.018
0.031
0.043
0.053
0.061
0.065
0.061
0.057
0.053
0.051
0.053
0.061
0.076
0.094
0.109
0.121
0.127
0.129
0.129
0.129
0.135
0.145
0.16
0.176
0.192
0.203
0.207
0.211
0.211
0.213
0.213
0.215
0.221
0.229
0.24
0.252
0.266
0.274
0.28
0.283
0.283
0.282
0.28
0.28
0.283
0.291
0.303
0.315
0.325
0.334
0.34
0.344
0.346
0.348
0.354
0.364
0.379
0.393
0.405
0.414
0.42
0.424
0.428
0.432
0.44
0.448
0.459
0.477
0.493
0.508
0.516
0.526
0.532
0.536
0.542
0.549
0.563
0.581
0.598
0.614
0.626
0.63
0.631
0.63
0.63
0.63
0.633
0.641
0.653
0.663
0.669
0.667
0.657
0.647
0.637
0.633
0.635
0.645
0.663
0.686
0.712
0.731
0.745
0.753
0.755
0.751
0.743
0.737
0.733
0.735
0.743
0.753
0.762
0.772
0.784
0.794
0.804
0.811
0.815
0.817
0.823
0.829
0.837
0.843
0.845
0.847
0.847
0.848
0.848
0.848
0.854
0.862
0.872
0.878
0.882
0.878
0.87
0.862
0.854
0.854
0.86
0.876
0.895
0.913
0.931
0.94
0.942
0.938
0.931
0.915
0.899
0.886
0.878
0.878
0.882
0.89
0.897
0.903
0.909
0.909
0.905
0.895
0.884
0.872
0.862
0.854
0.848
0.847
0.848
0.854
0.862
0.866
0.874
0.88
0.886
0.89
0.891
0.89
0.884
0.876
0.862
0.85
0.839
0.829
0.827
0.833
0.841
0.848
0.858
0.87
0.882
0.888
0.891
0.895
0.903
0.915
0.929
0.929
0.915
0.888
0.856
0.837
0.833
0.839
0.852
0.872
0.888
0.905
0.917
0.917
0.909
0.891
0.876
0.866
0.862
0.862
0.87
0.88
0.897
0.923
0.948
0.96
0.95
0.931
0.913
0.903
0.901
0.905
0.907
0.897
0.88
0.864
0.858
0.862
0.872
0.884
0.891
0.888
0.88
0.87
0.862
0.856
0.862
0.893
0.944
1.001
1.048
1.065
1.058
1.034
1.009
0.983
0.96
0.919
0.856
0.784
0.741
0.727
0.739
0.762
0.792
0.829
0.878
0.936
0.987
1.019
1.026
1.019
0.997
0.958
0.909
0.862
0.831
0.833
0.868
0.923
0.979
1.032
1.073
1.103
1.13
1.134
1.118
1.083
1.024
0.946
0.891
0.874
0.897
0.944
0.993
1.019
1.013
0.981
0.946
0.929
0.94
0.983
1.04
1.081
1.089
1.05
0.974
0.897
0.85
0.847
0.872
0.909
0.95
0.978
0.991
1.001
0.989
0.968
0.978
1.032
1.13
1.243
1.267
1.267
1.267
1.265
1.261
1.21
1.079
0.905
0.739
0.628
0.592
0.631
0.729
0.862
1.021
1.204
1.269
1.269
1.269
1.269
1.267
1.267
1.263
1.247
1.191
1.105
1.005
0.913
0.843
0.8
0.79
0.825
0.911
1.024
1.152
1.261
1.267
1.267
1.265
1.261
1.247
1.206
1.155
1.126
1.132
1.183
1.263
1.269
1.271
1.269
1.269
1.267
1.265
1.251
1.21
1.169
1.128
1.077
1.038
1.048
1.122
1.251
1.269
1.269
1.271
1.271
1.271
1.269
1.267
1.261
1.224
1.165
1.118
1.095
1.114
1.169
1.241
1.265
1.267
1.265
1.265
1.265
1.265
1.261
1.255
1.243
1.218
1.179
1.15
1.155
1.187
1.238
1.263
1.267
1.265
1.265
1.251
1.196
1.116
1.034
0.995
1.001
1.021
1.046
1.095
1.202
1.267
1.269
1.269
1.269
1.269
1.271
1.271
1.271
1.269
1.267
1.259
1.224
1.13
0.997
0.895
0.893
1.009
1.214
1.271
1.271
1.271
1.269
1.263
1.23
1.163
1.116
1.12
1.142
1.138
1.062
0.888
0.657
0.465
0.375
0.432
0.647
0.976
1.269
1.271
1.273
1.271
1.273
1.271
1.271
1.271
1.273
1.273
1.271
1.271
1.269
1.269
1.269
1.269
1.269
1.269
1.271
1.271
1.269
1.271
1.271
1.271
1.273
1.273
1.273
1.273
1.273
1.271
1.271
1.269
1.265
1.265
1.269
1.271
1.271
1.273
1.273
1.271
1.269
1.269
1.269
1.267
1.265
1.267
1.267
1.269
1.271
1.271
1.273
1.273
1.273
1.273
1.271
1.271
1.271
1.271
1.273
1.273
1.269
1.269
1.269
1.267
1.269
1.269
1.271
1.271
1.273
1.273
1.273
1.273
1.271
1.273
1.271
1.271
1.269
1.263
1.269
1.271
1.273
1.273
1.275
1.273
1.271
1.267
1.226
1.181
1.257
1.269
1.271
1.271
1.271
1.265
1.206
1.103
1.022
0.991
0.987
0.964
0.952
0.981
1.067
1.171
1.261
1.265
1.263
1.216
1.116
1.019
0.989
1.079
1.267
1.273
1.273
1.271
1.273
1.271
1.269
1.265
1.253
1.23
1.214
1.185
1.14
1.142
1.21
1.263
1.257
1.152
0.96
0.809
0.815
1.083
1.271
1.273
1.271
1.271
1.232
0.944
0.563
0.256
0.16
0.301
0.628
1.052
1.269
1.271
1.269
1.263
1.236
1.202
1.259
1.269
1.271
1.269
1.267
1.202
0.995
0.833
0.821
0.962
1.157
1.263
1.257
1.243
1.265
1.269
1.267
1.214
0.981
0.674
0.371
0.211
0.27
0.587
1.081
1.273
1.271
1.273
1.271
1.269
1.267
1.255
1.263
1.269
1.269
1.267
1.216
1.015
0.741
0.512
0.418
0.52
0.8
1.142
1.269
1.269
1.267
1.243
1.185
1.191
1.267
1.271
1.271
1.271
1.263
1.153
0.983
0.819
0.684
0.606
0.618
0.716
0.888
1.107
1.265
1.271
1.271
1.271
1.271
1.267
1.105
0.78
0.5
0.387
0.461
0.669
0.935
1.222
1.269
1.271
1.267
1.245
1.132
0.933
0.663
0.364
0.108
0.0
0.023
0.229
0.581
0.995
1.271
1.271
1.269
1.236
1.024
0.719
0.411
0.18
0.065
0.066
0.176
0.391
0.684
1.034
1.271
1.271
1.269
1.261
1.155
0.974
0.843
0.848
0.985
1.159
1.245
1.155
0.88
0.491
0.072
0.0
0.0
0.0
0.109
0.401
0.749
1.073
1.269
1.271
1.269
1.228
0.962
0.551
0.131
0.0
0.0
0.0
0.018
0.188
0.461
0.762
1.017
1.239
1.269
1.269
1.265
1.116
0.716
0.158
0.0
0.0
0.0
0.0
0.0
0.156
0.416
0.653
0.794
0.776
0.61
0.346
0.049
0.0
0.0
0.0
0.0
0.037
0.197
0.454
0.725
0.913
0.925
0.735
0.387
0.0
0.0
0.0
0.0
0.0
0.0
0.0
0.0
0.0
0.0
0.0
0.0
0.0
0.0
0.014
0.057
0.047
0.0
0.0
0.0
0.0
0.0
0.055
0.106
0.104
0.027
0.0
0.0
0.0
0.0
0.0
0.0
0.0
0.0
0.0
0.0
0.0
0.0
0.0
0.0
0.0
0.0
0.0
0.0
0.0
0.0
0.0
0.0
0.0
0.0
0.0
0.0
0.0
0.0
0.0
0.0
0.0
0.0
0.0
0.0
0.0
0.0
0.0
0.0
0.0
0.0
0.0
0.0
0.0
0.0
0.0
0.0
0.0
0.0
0.0
0.0
0.0
0.0
0.0
0.0
0.0
0.0
0.0
0.0
0.0
0.0
0.0
0.0
0.0
0.0
0.0
0.0
0.0
0.0
0.0
0.0
0.0
0.0
0.0
0.0
0.0
0.0
0.0
0.0
0.0
0.0
0.0
0.0
0.0
0.0
0.0
0.0
0.0
0.0
0.0
0.0
0.0
0.0
0.0
0.0
0.0
0.0
0.0
0.0
0.0
0.0
0.0
0.0
0.0
0.0
0.0
0.0
0.0
0.0
0.0
0.0
0.0
0.0
0.0
0.0
0.0
0.0
0.0
0.0
0.0
0.0
0.0
0.0
0.0
0.0
0.0
0.0
0.0
0.0
0.0
0.0
0.0
0.0
0.0
0.0
0.0
0.0
0.0
0.0
0.0
0.0
0.0
0.0
0.0
0.0
0.0
0.0
0.0
0.0
0.012
0.045
0.088
0.137
0.182
0.215
0.235
0.244
0.262
0.305
0.389
0.528
0.716
0.909
1.03
0.989
0.749
0.346
0.0
0.0
0.0
0.0
0.0
0.0
0.0
0.0
0.0
0.0
0.0
0.002
0.092
0.229
0.399
0.557
0.659
0.645
0.5
0.26
0.0
0.0
0.0
0.0
0.0
0.0
0.0
0.0
0.0
0.0
0.0
0.0
0.006
0.031
0.065
0.104
0.141
0.164
0.18
0.178
0.168
0.156
0.151
0.164
0.201
0.266
0.354
0.446
0.538
0.63
0.688
0.692
0.62
0.459
0.223
0.0
0.0
0.0
0.0
0.0
0.0
0.0
0.0
0.0
0.0
0.0
0.0
0.0
0.0
0.0
0.0
0.031
0.088
0.168
0.242
0.293
0.313
0.293
0.244
0.176
0.1
0.027
0.0
0.0
0.0
0.01
0.039
0.08
0.125
0.16
0.186
0.197
0.196
0.178
0.156
0.133
0.111
0.098
0.092
0.096
0.109
0.131
0.158
0.19
0.219
0.25
0.278
0.297
0.313
0.328
0.346
0.37
0.393
0.401
0.379
0.325
0.25
0.164
0.08
0.004
0.0
0.0
0.0
0.002
0.035
0.088
0.152
0.221
0.285
0.332
0.356
0.352
0.326
0.287
0.239
0.196
0.16
0.143
0.147
0.168
0.205
0.246
0.285
0.315
0.326
0.325
0.313
0.291
0.27
0.252
0.242
0.244
0.258
0.278
0.301
0.321
0.336
0.346
0.352
0.362
0.373
0.387
0.401
0.409
0.413
0.414
0.413
0.407
0.401
0.399
0.401
0.414
0.428
0.442
0.452
0.457
0.465
0.473
0.487
0.497
0.506
0.518
0.528
0.54
0.555
0.561
0.565
0.563
0.559
0.547
0.534
0.52
0.506
0.502
0.502
0.512
0.534
0.559
0.585
0.608
0.626
0.631
0.631
0.626
0.616
0.606
0.594
0.585
0.577
0.575
0.585
0.604
0.63
0.661
0.688
0.714
0.727
0.725
0.712
0.692
0.673
0.651
0.635
0.63
0.633
0.649
0.667
0.688
0.704
0.712
0.714
0.708
0.696
0.68
0.667
0.655
0.651
0.649
0.647
0.649
0.651
0.651
0.653
0.653
0.651
0.647
0.643
0.649
0.657
0.669
0.68
0.69
0.698
0.696
0.69
0.678
0.671
0.667
0.669
0.674
0.678
0.686
0.692
0.7
0.706
0.708
0.71
0.712
0.716
0.717
0.717
0.716
0.714
0.712
0.708
0.708
0.708
0.71
0.717
0.727
0.733
0.739
0.737
0.733
0.723
0.716
0.708
0.702
0.702
0.706
0.712
0.717
0.723
0.725
0.729
0.731
0.735
0.737
0.737
0.737
0.739
0.745
0.749
0.751
0.747
0.743
0.737
0.733
0.733
0.733
0.739
0.749
0.759
0.768
0.77
0.77
0.766
0.762
0.757
0.753
0.751
0.757
0.766
0.778
0.788
0.794
0.796
0.796
0.794
0.79
0.786
0.786
0.788
0.792
0.798
0.8
0.802
0.8
0.798
0.796
0.796
0.796
0.8
0.805
0.813
0.821
0.825
0.825
0.823
0.817
0.811
0.804
0.802
0.804
0.813
0.833
0.856
0.87
0.872
0.866
0.854
0.843
0.833
0.825
0.819
0.823
0.831
0.839
0.843
0.845
0.845
0.841
0.833
0.823
0.807
0.794
0.786
0.784
0.788
0.796
0.811
0.831
0.847
0.852
0.845
0.829
0.819
0.821
0.833
0.85
0.866
0.868
0.86
0.841
0.813
0.788
0.764
0.751
0.745
0.747
0.757
0.77
0.792
0.815
0.841
0.868
0.888
0.893
0.884
0.858
0.823
0.788
0.759
0.737
0.727
0.721
0.723
0.733
0.749
0.762
0.77
0.77
0.764
0.755
0.749
0.755
0.78
0.823
0.874
0.919
0.942
0.936
0.905
0.858
0.815
0.784
0.77
0.77
0.786
0.817
0.862
0.913
0.948
0.962
0.956
0.938
0.917
0.903
0.888
0.866
0.833
0.805
0.782
0.776
0.79
0.817
0.856
0.886
0.897
0.884
0.848
0.804
0.762
0.737
0.731
0.751
0.788
0.831
0.862
0.874
0.868
0.874
0.913
0.97
1.017
1.024
0.983
0.913
0.845
0.8
0.786
0.796
0.821
0.852
0.886
0.931
0.989
1.05
1.099
1.134
1.157
1.163
1.153
1.118
1.05
0.954
0.845
0.745
0.682
0.68
0.729
0.807
0.897
0.979
1.044
1.075
1.079
1.062
1.03
0.997
0.96
0.917
0.901
0.923
0.966
0.995
0.987
0.94
0.88
0.823
0.798
0.821
0.897
1.017
1.152
1.259
1.267
1.265
1.263
1.259
1.236
1.177
1.087
0.983
0.891
0.823
0.79
0.802
0.874
1.001
1.146
1.259
1.265
1.263
1.251
1.218
1.155
1.081
1.024
1.001
1.019
1.073
1.144
1.218
1.263
1.265
1.263
1.261
1.257
1.251
1.238
1.191
1.089
0.952
0.835
0.782
0.821
0.938
1.12
1.269
1.271
1.271
1.271
1.269
1.271
1.271
1.271
1.269
1.267
1.257
1.202
1.114
1.019
0.921
0.833
0.776
0.79
0.87
0.981
1.095
1.189
1.236
1.228
1.191
1.155
1.116
1.065
1.007
0.956
0.946
0.976
1.042
1.144
1.259
1.267
1.267
1.265
1.267
1.267
1.269
1.269
1.269
1.267
1.259
1.183
1.064
0.94
0.87
0.882
0.944
1.017
1.062
1.071
1.048
1.017
0.989
0.981
0.985
1.015
1.064
1.138
1.241
1.269
1.271
1.271
1.267
1.257
1.15
0.948
0.723
0.538
0.424
0.385
0.403
0.475
0.622
0.825
1.05
1.255
1.269
1.269
1.269
1.271
1.273
1.271
1.271
1.271
1.271
1.271
1.271
1.271
1.271
1.267
1.259
1.206
1.138
1.112
1.167
1.267
1.271
1.273
1.271
1.273
1.271
1.269
1.269
1.271
1.271
1.271
1.269
1.269
1.267
1.263
1.239
1.183
1.15
1.181
1.265
1.271
1.271
1.271
1.271
1.271
1.271
1.271
1.273
1.273
1.271
1.271
1.271
1.271
1.271
1.271
1.271
1.273
1.271
1.273
1.271
1.273
1.271
1.273
1.273
1.273
1.273
1.273
1.273
1.273
1.271
1.273
1.271
1.273
1.273
1.273
1.273
1.273
1.273
1.271
1.273
1.273
1.273
1.273
1.273
1.273
1.271
1.271
1.271
1.269
1.269
1.267
1.267
1.267
1.269
1.271
1.273
1.271
1.271
1.271
1.269
1.259
1.261
1.269
1.269
1.271
1.271
1.271
1.269
1.267
1.267
1.269
1.269
1.273
1.273
1.273
1.271
1.271
1.269
1.265
1.239
1.204
1.239
1.269
1.269
1.271
1.269
1.261
1.093
0.825
0.549
0.362
0.319
0.42
0.592
0.794
1.03
1.267
1.271
1.271
1.271
1.271
1.271
1.271
1.273
1.271
1.269
1.267
1.247
1.122
0.89
0.628
0.411
0.305
0.342
0.543
0.927
1.273
1.273
1.273
1.271
1.267
1.144
0.87
0.583
0.377
0.332
0.457
0.755
1.185
1.271
1.273
1.273
1.271
1.267
1.198
1.001
0.745
0.489
0.297
0.268
0.487
0.917
1.269
1.271
1.271
1.265
1.198
1.017
0.805
0.68
0.729
0.991
1.269
1.271
1.271
1.269
1.267
1.259
1.259
1.261
1.239
1.153
0.995
0.805
0.61
0.461
0.428
0.545
0.782
1.052
1.251
1.267
1.263
1.265
1.267
1.267
1.265
1.247
1.196
1.148
1.075
0.958
0.813
0.651
0.499
0.375
0.303
0.348
0.616
1.109
1.273
1.273
1.271
1.269
1.267
1.261
1.218
1.14
1.067
1.062
1.097
1.093
1.022
0.95
0.917
0.927
0.938
0.911
0.897
0.94
1.017
1.069
1.056
0.991
0.929
0.897
0.884
0.858
0.78
0.645
0.524
0.483
0.549
0.694
0.893
1.109
1.255
1.265
1.265
1.263
1.2
0.972
0.628
0.262
0.0
0.0
0.0
0.113
0.272
0.432
0.569
0.7
0.786
0.807
0.796
0.815
0.929
1.079
1.163
1.173
1.105
0.972
0.784
0.542
0.274
0.043
0.0
0.076
0.332
0.641
0.884
1.001
0.991
0.909
0.862
0.891
0.956
0.956
0.792
0.475
0.1
0.0
0.0
0.0
0.0
0.082
0.227
0.381
0.52
0.628
0.686
0.68
0.628
0.543
0.436
0.315
0.199
0.127
0.151
0.323
0.628
0.958
1.198
1.261
1.169
0.886
0.483
0.059
0.0
0.0
0.0
0.0
0.0
0.0
0.0
0.0
0.0
0.0
0.059
0.207
0.366
0.463
0.459
0.401
0.35
0.334
0.348
0.366
0.36
0.307
0.221
0.109
0.0
0.0
0.0
0.0
0.0
0.0
0.0
0.0
0.0
0.0
0.0
0.0
0.082
0.26
0.534
0.862
1.132
1.236
1.105
0.737
0.235
0.0
0.0
0.0
0.0
0.0
0.0
0.0
0.0
0.0
0.0
0.0
0.0
0.0
0.0
0.041
0.125
0.203
0.276
0.325
0.348
0.342
0.305
0.26
0.227
0.227
0.276
0.334
0.334
0.219
0.004
0.0
0.0
0.0
0.0
0.0
0.0
0.0
0.0
0.0
0.0
0.0
0.0
0.0
0.0
0.02
0.078
0.139
0.18
0.184
0.147
0.096
0.047
0.0
0.0
0.0
0.0
0.0
0.0
0.0
0.0
0.0
0.0
0.0
0.0
0.0
0.0
0.0
0.0
0.0
0.0
0.0
0.0
0.0
0.0
0.0
0.0
0.0
0.0
0.0
0.0
0.0
0.0
0.0
0.0
0.0
0.0
0.0
0.0
0.0
0.0
0.0
0.0
0.0
0.0
0.0
0.0
0.0
0.0
0.0
0.0
0.0
0.0
0.0
0.0
0.0
0.0
0.0
0.0
0.0
0.0
0.0
0.0
0.0
0.0
0.0
0.0
0.0
0.0
0.0
0.0
0.0
0.0
0.0
0.0
0.0
0.0
0.0
0.0
0.0
0.0
0.0
0.0
0.0
0.0
0.0
0.0
0.0
0.0
0.0
0.0
0.0
0.0
0.0
0.0
0.0
0.0
0.0
0.0
0.0
0.0
0.0
0.0
0.0
0.0
0.0
0.0
0.0
0.0
0.0
0.0
0.0
0.0
0.0
0.0
0.0
0.0
0.0
0.0
0.0
0.0
0.0
0.0
0.0
0.0
0.0
0.0
0.0
0.0
0.0
0.0
0.0
0.0
0.0
0.0
0.0
0.0
0.0
0.0
0.106
0.301
0.559
0.845
1.089
1.206
1.138
0.868
0.45
0.0
0.0
0.0
0.0
0.0
0.0
0.0
0.0
0.0
0.0
0.0
0.066
0.166
0.25
0.28
0.258
0.184
0.076
0.0
0.0
0.0
0.0
0.014
0.063
0.141
0.246
0.364
0.471
0.542
0.559
0.516
0.42
0.293
0.156
0.031
0.0
0.0
0.0
0.07
0.19
0.342
0.514
0.671
0.77
0.78
0.696
0.542
0.362
0.199
0.072
0.0
0.0
0.0
0.0
0.0
0.0
0.0
0.0
0.0
0.031
0.072
0.109
0.139
0.156
0.17
0.188
0.211
0.242
0.276
0.295
0.297
0.274
0.227
0.16
0.088
0.031
0.004
0.01
0.053
0.117
0.176
0.211
0.233
0.252
0.264
0.28
0.305
0.334
0.354
0.356
0.33
0.276
0.207
0.141
0.086
0.045
0.022
0.023
0.053
0.094
0.137
0.176
0.209
0.229
0.233
0.221
0.203
0.18
0.16
0.145
0.139
0.145
0.16
0.184
0.211
0.237
0.258
0.268
0.27
0.266
0.256
0.244
0.235
0.231
0.25
0.289
0.362
0.465
0.587
0.698
0.762
0.739
0.587
0.313
0.0
0.0
0.0
0.0
0.0
0.0
0.006
0.065
0.145
0.237
0.325
0.405
0.463
0.495
0.493
0.457
0.393
0.311
0.229
0.16
0.115
0.102
0.117
0.16
0.217
0.278
0.328
0.364
0.379
0.375
0.354
0.319
0.283
0.25
0.229
0.223
0.229
0.242
0.266
0.293
0.325
0.348
0.364
0.37
0.373
0.37
0.366
0.36
0.354
0.352
0.358
0.362
0.373
0.391
0.414
0.444
0.471
0.495
0.504
0.502
0.483
0.457
0.432
0.409
0.395
0.395
0.409
0.434
0.465
0.497
0.522
0.543
0.553
0.555
0.547
0.534
0.522
0.512
0.508
0.506
0.506
0.51
0.516
0.524
0.536
0.547
0.555
0.561
0.563
0.561
0.557
0.553
0.547
0.543
0.538
0.538
0.538
0.54
0.543
0.551
0.553
0.553
0.545
0.54
0.536
0.534
0.534
0.536
0.538
0.543
0.549
0.553
0.557
0.559
0.563
0.563
0.567
0.571
0.577
0.583
0.59
0.596
0.6
0.6
0.596
0.59
0.581
0.575
0.567
0.565
0.565
0.575
0.585
0.594
0.604
0.608
0.61
0.61
0.608
0.608
0.61
0.612
0.622
0.63
0.639
0.645
0.649
0.649
0.653
0.657
0.661
0.669
0.678
0.692
0.7
0.71
0.714
0.716
0.714
0.708
0.696
0.684
0.678
0.682
0.698
0.721
0.749
0.766
0.774
0.766
0.745
0.716
0.688
0.669
0.669
0.69
0.725
0.768
0.809
0.845
0.868
0.886
0.884
0.854
0.794
0.719
0.653
0.618
0.626
0.674
0.753
0.843
0.923
0.974
0.983
0.948
0.878
0.792
0.716
0.669
0.663
0.696
0.757
0.829
0.891
0.915
0.913
0.89
0.839
0.772
0.719
0.686
0.68
0.708
0.755
0.823
0.903
0.979
1.028
1.042
1.017
0.956
0.878
0.796
0.741
0.733
0.778
0.85
0.925
0.989
1.04
1.064
1.04
0.942
0.79
0.628
0.512
0.487
0.567
0.735
0.923
1.077
1.153
1.15
1.089
1.003
0.919
0.847
0.792
0.784
0.823
0.893
0.983
1.073
1.155
1.216
1.245
1.234
1.169
1.06
0.921
0.78
0.657
0.577
0.569
0.665
0.839
1.048
1.232
1.267
1.265
1.263
1.245
1.163
1.024
0.856
0.708
0.628
0.647
0.753
0.905
1.058
1.187
1.259
1.257
1.202
1.075
0.913
0.759
0.651
0.62
0.688
0.843
1.056
1.259
1.267
1.267
1.261
1.249
1.204
1.136
1.071
1.028
0.999
0.981
0.968
0.944
0.911
0.862
0.815
0.782
0.79
0.876
1.056
1.265
1.269
1.271
1.269
1.269
1.271
1.269
1.265
1.2
1.015
0.8
0.647
0.6
0.669
0.858
1.118
1.269
1.271
1.269
1.267
1.249
1.169
1.05
0.919
0.827
0.815
0.895
1.046
1.226
1.269
1.267
1.269
1.269
1.265
1.259
1.253
1.267
1.267
1.269
1.269
1.259
1.193
1.091
0.972
0.862
0.819
0.903
1.091
1.267
1.269
1.265
1.226
1.083
0.905
0.762
0.714
0.776
0.942
1.153
1.269
1.269
1.271
1.269
1.267
1.265
1.257
1.253
1.261
1.267
1.265
1.263
1.253
1.216
1.157
1.191
1.267
1.269
1.269
1.263
1.153
0.897
0.616
0.426
0.411
0.6
1.001
1.271
1.273
1.273
1.273
1.273
1.271
1.271
1.269
1.269
1.269
1.271
1.271
1.273
1.271
1.271
1.271
1.271
1.269
1.267
1.265
1.267
1.269
1.269
1.269
1.269
1.263
1.241
1.179
1.144
1.175
1.263
1.269
1.271
1.271
1.271
1.273
1.273
1.273
1.273
1.271
1.273
1.271
1.271
1.273
1.273
1.273
1.273
1.273
1.273
1.273
1.273
1.273
1.273
1.273
1.273
1.273
1.273
1.273
1.273
1.273
1.271
1.271
1.273
1.273
1.273
1.273
1.273
1.273
1.273
1.273
1.271
1.271
1.271
1.273
1.273
1.273
1.273
1.273
1.273
1.273
1.273
1.271
1.269
1.269
1.271
1.271
1.273
1.273
1.273
1.273
1.271
1.271
1.271
1.269
1.269
1.271
1.271
1.271
1.271
1.267
1.267
1.265
1.249
1.161
1.054
1.026
1.138
1.269
1.271
1.271
1.269
1.269
1.261
1.193
1.077
0.954
0.882
0.913
1.079
1.271
1.271
1.273
1.273
1.271
1.269
1.265
1.257
1.251
1.261
1.267
1.267
1.267
1.269
1.269
1.271
1.269
1.269
1.271
1.269
1.265
1.206
1.13
1.161
1.267
1.271
1.271
1.269
1.269
1.267
1.249
1.136
0.919
0.643
0.387
0.239
0.237
0.37
0.639
1.013
1.271
1.273
1.271
1.271
1.273
1.273
1.273
1.271
1.271
1.269
1.267
1.267
1.265
1.265
1.267
1.265
1.263
1.265
1.269
1.269
1.271
1.271
1.269
1.257
1.152
1.021
0.954
0.985
1.105
1.226
1.238
1.165
1.157
1.269
1.271
1.271
1.271
1.257
1.087
0.813
0.508
0.254
0.147
0.235
0.51
0.909
1.269
1.271
1.271
1.269
1.261
1.208
1.101
0.97
0.85
0.762
0.743
0.804
1.046
1.271
1.271
1.273
1.271
1.267
1.179
0.95
0.684
0.469
0.37
0.416
0.583
0.804
1.022
1.251
1.271
1.271
1.273
1.271
1.267
1.181
1.021
0.868
0.737
0.637
0.612
0.7
0.882
1.073
1.204
1.204
1.054
0.753
0.373
0.02
0.0
0.0
0.0
0.19
0.559
1.044
1.271
1.269
1.247
1.04
0.802
0.604
0.457
0.336
0.237
0.196
0.221
0.274
0.328
0.442
0.659
0.979
1.265
1.269
1.251
1.109
0.911
0.719
0.543
0.387
0.272
0.252
0.36
0.563
0.78
0.917
0.956
0.895
0.774
0.645
0.569
0.577
0.635
0.688
0.663
0.522
0.307
0.113
0.006
0.0
0.043
0.125
0.219
0.309
0.375
0.383
0.33
0.239
0.168
0.151
0.192
0.258
0.326
0.401
0.493
0.579
0.616
0.585
0.532
0.483
0.428
0.33
0.174
0.0
0.0
0.01
0.149
0.33
0.438
0.422
0.319
0.178
0.068
0.023
0.059
0.154
0.293
0.471
0.663
0.815
0.864
0.786
0.622
0.395
0.141
0.0
0.0
0.0
0.0
0.0
0.0
0.02
0.098
0.219
0.36
0.465
0.493
0.434
0.319
0.186
0.096
0.074
0.154
0.34
0.585
0.805
0.909
0.85
0.639
0.364
0.131
0.006
0.0
0.057
0.158
0.266
0.334
0.338
0.285
0.201
0.137
0.109
0.125
0.172
0.25
0.364
0.51
0.618
0.645
0.549
0.366
0.149
0.0
0.0
0.02
0.151
0.348
0.542
0.7
0.784
0.768
0.665
0.5
0.319
0.17
0.08
0.051
0.053
0.029
0.0
0.0
0.0
0.0
0.0
0.0
0.0
0.023
0.147
0.368
0.643
0.884
0.981
0.886
0.616
0.264
0.002
0.0
0.045
0.199
0.35
0.448
0.436
0.321
0.123
0.0
0.0
0.0
0.0
0.0
0.0
0.0
0.0
0.018
0.119
0.221
0.268
0.233
0.125
0.0
0.0
0.0
0.0
0.0
0.049
0.164
0.323
0.499
0.635
0.682
0.612
0.418
0.127
0.0
0.0
0.0
0.0
0.0
0.0
0.0
0.0
0.0
0.0
0.0
0.0
0.047
0.196
0.432
0.712
0.962
1.089
1.009
0.766
0.471
0.199
0.004
0.0
0.0
0.0
0.0
0.0
0.0
0.0
0.0
0.0
0.0
0.0
0.0
0.0
0.0
0.0
0.0
0.0
0.0
0.0
0.0
0.0
0.002
0.008
0.01
0.008
0.012
0.022
0.043
0.08
0.137
0.203
0.25
0.252
0.199
0.104
0.0
0.0
0.0
0.0
0.0
0.0
0.0
0.0
0.0
0.0
0.0
0.0
0.0
0.0
0.0
0.0
0.0
0.0
0.0
0.0
0.0
0.0
0.0
0.0
0.0
0.0
0.0
0.0
0.0
0.0
0.0
0.0
0.0
0.0
0.0
0.0
0.0
0.0
0.0
0.0
0.0
0.0
0.0
0.0
0.0
0.0
0.0
0.0
0.0
0.0
0.0
0.0
0.0
0.0
0.0
0.0
0.0
0.0
0.0
0.0
0.0
0.0
0.0
0.0
0.0
0.0
0.0
0.0
0.0
0.0
0.0
0.0
0.0
0.0
0.0
0.0
0.0
0.0
0.0
0.0
0.0
0.0
0.0
0.0
0.0
0.0
0.0
0.0
0.0
0.0
0.0
0.0
0.0
0.0
0.0
0.0
0.0
0.0
0.0
0.0
0.0
0.0
0.0
0.0
0.0
0.0
0.0
0.0
0.0
0.0
0.0
0.0
0.0
0.0
0.0
0.0
0.0
0.0
0.0
0.0
0.0
0.0
0.0
0.0
0.0
0.0
0.0
0.0
0.0
0.0
0.0
0.0
0.0
0.0
0.0
0.0
0.0
0.0
0.0
0.0
0.0
0.0
0.0
0.0
0.0
0.0
0.0
0.0
0.0
0.0
0.0
0.0
0.0
0.0
0.0
0.0
0.0
0.0
0.0
0.0
0.016
0.065
0.141
0.225
0.307
0.373
0.42
0.442
0.436
0.405
0.362
0.317
0.278
0.252
0.25
0.27
0.305
0.352
0.407
0.457
0.5
0.526
0.536
0.53
0.514
0.491
0.463
0.44
0.422
0.414
0.424
0.456
0.502
0.557
0.614
0.663
0.7
0.71
0.698
0.667
0.628
0.592
0.565
0.553
0.555
0.575
0.612
0.661
0.712
0.753
0.784
0.796
0.796
0.78
0.755
0.727
0.704
0.69
0.69
0.7
0.717
0.743
0.77
0.798
0.819
0.835
0.845
0.845
0.843
0.837
0.827
0.817
0.813
0.809
0.813
0.823
0.837
0.856
0.874
0.893
0.901
0.899
0.888
0.874
0.862
0.854
0.852
0.852
0.86
0.87
0.884
0.895
0.903
0.903
0.897
0.888
0.876
0.862
0.85
0.843
0.841
0.845
0.85
0.858
0.864
0.866
0.868
0.866
0.86
0.854
0.847
0.839
0.833
0.825
0.819
0.809
0.804
0.8
0.8
0.8
0.805
0.807
0.813
0.815
0.815
0.809
0.798
0.79
0.776
0.768
0.761
0.757
0.761
0.766
0.772
0.778
0.778
0.776
0.77
0.762
0.755
0.747
0.745
0.743
0.745
0.751
0.757
0.762
0.768
0.774
0.778
0.782
0.782
0.782
0.782
0.78
0.778
0.772
0.764
0.759
0.759
0.757
0.761
0.768
0.778
0.79
0.798
0.802
0.802
0.796
0.788
0.778
0.77
0.764
0.764
0.768
0.776
0.786
0.794
0.798
0.798
0.796
0.792
0.786
0.78
0.776
0.776
0.778
0.78
0.782
0.782
0.778
0.778
0.776
0.776
0.776
0.778
0.78
0.786
0.79
0.788
0.786
0.782
0.778
0.772
0.764
0.761
0.761
0.764
0.77
0.776
0.782
0.782
0.78
0.776
0.772
0.766
0.764
0.762
0.764
0.768
0.774
0.778
0.786
0.788
0.794
0.8
0.8
0.802
0.8
0.8
0.796
0.794
0.788
0.786
0.782
0.784
0.786
0.79
0.798
0.805
0.815
0.821
0.825
0.827
0.829
0.833
0.837
0.839
0.839
0.839
0.843
0.85
0.858
0.862
0.86
0.848
0.835
0.821
0.809
0.805
0.802
0.802
0.805
0.821
0.841
0.86
0.876
0.882
0.882
0.874
0.86
0.845
0.833
0.829
0.833
0.845
0.866
0.89
0.913
0.933
0.94
0.938
0.929
0.911
0.895
0.882
0.87
0.86
0.841
0.807
0.774
0.759
0.78
0.835
0.923
1.021
1.095
1.126
1.109
1.054
0.976
0.891
0.811
0.749
0.714
0.71
0.737
0.79
0.858
0.919
0.95
0.95
0.917
0.864
0.823
0.805
0.823
0.886
0.983
1.089
1.169
1.2
1.175
1.099
0.989
0.876
0.78
0.716
0.678
0.663
0.69
0.768
0.886
1.015
1.132
1.224
1.263
1.263
1.257
1.232
1.173
1.103
1.038
0.976
0.909
0.841
0.784
0.751
0.757
0.817
0.927
1.065
1.206
1.267
1.267
1.257
1.185
1.021
0.807
0.639
0.569
0.616
0.772
0.993
1.202
1.269
1.267
1.241
1.112
0.911
0.704
0.565
0.528
0.61
0.79
1.034
1.265
1.271
1.269
1.269
1.267
1.267
1.265
1.265
1.265
1.257
1.222
1.163
1.093
1.019
0.944
0.882
0.819
0.78
0.774
0.825
0.925
1.046
1.146
1.193
1.202
1.21
1.226
1.249
1.253
1.222
1.148
1.028
0.872
0.716
0.61
0.592
0.655
0.778
0.927
1.079
1.224
1.267
1.267
1.263
1.255
1.208
1.14
1.069
1.034
1.065
1.157
1.263
1.267
1.267
1.265
1.263
1.261
1.239
1.189
1.142
1.122
1.13
1.148
1.175
1.216
1.253
1.255
1.232
1.173
1.071
0.923
0.776
0.69
0.684
0.757
0.89
1.056
1.218
1.267
1.269
1.267
1.267
1.267
1.267
1.267
1.267
1.265
1.259
1.234
1.171
1.081
0.991
0.925
0.878
0.848
0.843
0.866
0.89
0.868
0.843
0.89
1.022
1.191
1.269
1.271
1.271
1.269
1.265
1.228
1.087
0.899
0.747
0.714
0.829
1.052
1.267
1.271
1.267
1.257
1.175
1.021
0.841
0.727
0.753
0.907
1.152
1.269
1.267
1.198
0.95
0.62
0.321
0.172
0.262
0.592
1.064
1.271
1.273
1.271
1.271
1.271
1.271
1.269
1.271
1.271
1.269
1.267
1.263
1.259
1.261
1.222
1.087
0.899
0.77
0.8
0.997
1.267
1.271
1.271
1.271
1.271
1.271
1.271
1.271
1.271
1.269
1.269
1.267
1.267
1.269
1.269
1.269
1.269
1.267
1.265
1.269
1.271
1.271
1.271
1.271
1.267
1.251
1.238
1.265
1.269
1.271
1.271
1.271
1.269
1.271
1.271
1.271
1.273
1.271
1.273
1.271
1.271
1.271
1.271
1.271
1.271
1.271
1.273
1.271
1.271
1.269
1.271
1.271
1.271
1.271
1.273
1.273
1.271
1.273
1.273
1.273
1.273
1.273
1.273
1.273
1.273
1.273
1.271
1.271
1.271
1.269
1.265
1.265
1.269
1.271
1.273
1.273
1.273
1.273
1.271
1.269
1.267
1.263
1.263
1.267
1.271
1.273
1.273
1.273
1.271
1.273
1.271
1.269
1.269
1.269
1.269
1.269
1.267
1.259
1.249
1.265
1.267
1.269
1.269
1.267
1.269
1.271
1.271
1.271
1.273
1.269
1.269
1.269
1.267
1.263
1.228
1.095
0.911
0.819
0.993
1.271
1.273
1.273
1.273
1.273
1.271
1.271
1.271
1.271
1.269
1.253
1.216
1.234
1.265
1.267
1.261
1.179
1.06
0.958
0.886
0.839
0.827
0.89
1.064
1.269
1.273
1.271
1.271
1.271
1.269
1.269
1.269
1.271
1.271
1.271
1.267
1.259
1.216
1.173
1.22
1.269
1.271
1.271
1.271
1.271
1.271
1.271
1.271
1.269
1.267
1.265
1.263
1.265
1.267
1.269
1.269
1.267
1.271
1.271
1.271
1.271
1.265
1.163
0.976
0.805
0.669
0.579
0.612
0.833
1.208
1.271
1.271
1.269
1.269
1.265
1.253
1.169
1.048
0.974
0.993
1.105
1.251
1.267
1.269
1.269
1.267
1.267
1.267
1.267
1.269
1.261
1.189
1.03
0.845
0.673
0.538
0.489
0.532
0.667
0.856
1.058
1.251
1.269
1.269
1.267
1.255
1.124
0.907
0.671
0.479
0.37
0.377
0.512
0.731
0.972
1.177
1.269
1.269
1.265
1.175
0.911
0.581
0.313
0.156
0.086
0.096
0.168
0.301
0.481
0.659
0.78
0.815
0.768
0.655
0.483
0.287
0.141
0.098
0.162
0.321
0.567
0.872
1.15
1.263
1.208
0.952
0.545
0.068
0.0
0.0
0.0
0.0
0.0
0.0
0.0
0.0
0.0
0.0
0.012
0.156
0.375
0.573
0.631
0.516
0.27
0.0
0.0
0.0
0.0
0.0
0.0
0.0
0.0
0.0
0.016
0.149
0.311
0.407
0.397
0.283
0.143
0.078
0.139
0.291
0.426
0.459
0.368
0.182
0.0
0.0
0.0
0.0
0.0
0.0
0.0
0.0
0.031
0.106
0.162
0.211
0.248
0.272
0.262
0.207
0.106
0.0
0.0
0.0
0.0
0.0
0.0
0.0
0.0
0.0
0.0
0.0
0.0
0.0
0.0
0.0
0.0
0.0
0.0
0.0
0.014
0.047
0.08
0.113
0.164
0.239
0.35
0.471
0.592
0.698
0.766
0.747
0.585
0.276
0.0
0.0
0.0
0.0
0.0
0.0
0.0
0.0
0.0
0.0
0.0
0.0
0.0
0.0
0.0
0.0
0.0
0.0
0.0
0.0
0.0
0.0
0.0
0.0
0.0
0.0
0.0
0.0
0.0
0.0
0.0
0.0
0.0
0.0
0.0
0.0
0.0
0.0
0.0
0.0
0.0
0.0
0.0
0.0
0.0
0.0
0.0
0.0
0.0
0.0
0.0
0.0
0.0
0.0
0.0
0.0
0.0
0.0
0.0
0.0
0.0
0.0
0.0
0.0
0.0
0.0
0.0
0.0
0.0
0.0
0.0
0.0
0.0
0.0
0.0
0.0
0.0
0.0
0.0
0.0
0.0
0.0
0.0
0.0
0.0
0.0
0.0
0.0
0.0
0.0
0.0
0.0
0.0
0.0
0.0
0.0
0.0
0.0
0.0
0.0
0.0
0.0
0.0
0.0
0.0
0.0
0.0
0.0
0.0
0.0
0.0
0.0
0.0
0.0
0.0
0.0
0.0
0.0
0.0
0.0
0.0
0.0
0.0
0.0
0.0
0.0
0.0
0.0
0.0
0.0
0.0
0.0
0.0
0.0
0.0
0.0
0.0
0.0
0.0
0.0
0.0
0.0
0.082
0.276
0.522
0.747
0.868
0.815
0.588
0.244
0.0
0.0
0.0
0.0
0.0
0.0
0.0
0.0
0.0
0.0
0.0
0.0
0.0
0.0
0.0
0.0
0.0
0.01
0.035
0.061
0.088
0.109
0.129
0.139
0.139
0.133
0.123
0.108
0.092
0.08
0.07
0.074
0.08
0.098
0.133
0.19
0.258
0.332
0.411
0.51
0.641
0.809
0.978
1.079
1.03
0.786
0.362
0.0
0.0
0.0
0.0
0.0
0.0
0.0
0.0
0.0
0.0
0.0
0.0
0.0
0.0
0.0
0.006
0.074
0.19
0.317
0.42
0.473
0.471
0.414
0.315
0.184
0.053
0.0
0.0
0.0
0.0
0.027
0.09
0.166
0.25
0.325
0.377
0.401
0.395
0.36
0.307
0.25
0.196
0.156
0.154
0.196
0.291
0.444
0.643
0.848
1.015
1.091
1.03
0.825
0.493
0.084
0.0
0.0
0.0
0.0
0.0
0.0
0.0
0.0
0.0
0.016
0.106
0.246
0.405
0.545
0.637
0.667
0.63
0.54
0.414
0.289
0.18
0.104
0.078
0.098
0.156
0.242
0.34
0.432
0.5
0.54
0.545
0.518
0.471
0.413
0.352
0.303
0.272
0.262
0.278
0.315
0.366
0.422
0.475
0.518
0.543
0.549
0.534
0.5
0.461
0.422
0.389
0.373
0.377
0.397
0.434
0.479
0.524
0.557
0.581
0.59
0.587
0.569
0.542
0.508
0.481
0.463
0.454
0.456
0.467
0.487
0.51
0.532
0.551
0.563
0.567
0.565
0.559
0.547
0.534
0.52
0.51
0.508
0.516
0.526
0.54
0.551
0.561
0.571
0.583
0.588
0.588
0.583
0.573
0.557
0.542
0.528
0.52
0.524
0.534
0.549
0.565
0.579
0.594
0.608
0.614
0.614
0.602
0.587
0.573
0.567
0.567
0.575
0.594
0.616
0.639
0.657
0.669
0.674
0.674
0.673
0.669
0.659
0.647
0.633
0.62
0.606
0.602
0.616
0.643
0.678
0.716
0.743
0.753
0.747
0.725
0.7
0.669
0.643
0.628
0.628
0.645
0.676
0.71
0.739
0.762
0.77
0.768
0.759
0.741
0.725
0.71
0.702
0.702
0.704
0.71
0.721
0.733
0.745
0.757
0.764
0.768
0.77
0.768
0.762
0.757
0.747
0.739
0.733
0.731
0.733
0.735
0.745
0.757
0.77
0.782
0.79
0.788
0.782
0.768
0.755
0.739
0.729
0.723
0.723
0.731
0.741
0.749
0.757
0.761
0.759
0.757
0.753
0.749
0.749
0.753
0.761
0.766
0.774
0.78
0.786
0.79
0.792
0.794
0.8
0.804
0.813
0.823
0.833
0.837
0.833
0.831
0.827
0.823
0.823
0.825
0.833
0.847
0.858
0.87
0.876
0.876
0.874
0.87
0.864
0.86
0.86
0.866
0.878
0.888
0.897
0.901
0.899
0.891
0.882
0.864
0.85
0.847
0.852
0.872
0.891
0.913
0.923
0.927
0.925
0.917
0.907
0.901
0.905
0.915
0.931
0.94
0.94
0.929
0.909
0.888
0.86
0.837
0.819
0.811
0.819
0.837
0.86
0.882
0.893
0.897
0.893
0.891
0.895
0.911
0.929
0.936
0.938
0.936
0.933
0.933
0.935
0.929
0.907
0.874
0.837
0.813
0.809
0.825
0.848
0.862
0.864
0.868
0.884
0.911
0.954
1.005
1.05
1.083
1.101
1.103
1.087
1.036
0.938
0.807
0.676
0.567
0.516
0.532
0.612
0.731
0.864
0.985
1.081
1.142
1.173
1.179
1.157
1.11
1.054
0.995
0.935
0.874
0.817
0.776
0.751
0.749
0.778
0.833
0.911
1.019
1.134
1.23
1.261
1.249
1.183
1.06
0.927
0.811
0.725
0.674
0.667
0.708
0.786
0.901
1.015
1.095
1.124
1.105
1.046
0.956
0.858
0.766
0.708
0.694
0.723
0.778
0.831
0.864
0.868
0.864
0.88
0.917
0.972
1.026
1.069
1.089
1.085
1.06
1.015
0.95
0.872
0.786
0.716
0.68
0.702
0.778
0.888
1.015
1.128
1.214
1.255
1.255
1.222
1.155
1.079
1.013
0.966
0.936
0.911
0.874
0.825
0.78
0.753
0.751
0.757
0.77
0.8
0.837
0.874
0.895
0.907
0.929
0.968
1.022
1.081
1.12
1.13
1.114
1.079
1.024
0.96
0.907
0.878
0.886
0.921
0.976
1.036
1.085
1.103
1.083
1.03
0.954
0.882
0.815
0.755
0.721
0.727
0.77
0.843
0.931
1.028
1.128
1.212
1.263
1.263
1.259
1.245
1.193
1.103
0.993
0.895
0.841
0.839
0.907
1.03
1.171
1.261
1.263
1.247
1.206
1.15
1.065
0.993
0.983
1.032
1.116
1.202
1.261
1.263
1.257
1.232
1.179
1.126
1.089
1.077
1.099
1.13
1.126
1.077
1.007
0.929
0.864
0.829
0.868
0.999
1.198
1.269
1.269
1.265
1.241
1.167
1.069
0.974
0.895
0.829
0.794
0.811
0.915
1.107
1.267
1.269
1.271
1.271
1.271
1.271
1.269
1.269
1.267
1.255
1.198
1.109
1.026
0.978
0.968
0.974
0.976
1.021
1.153
1.269
1.271
1.269
1.269
1.267
1.259
1.208
1.105
0.993
0.911
0.876
0.89
0.925
0.944
0.925
0.897
0.874
0.86
0.882
0.974
1.134
1.267
1.271
1.271
1.269
1.269
1.267
1.259
1.253
1.259
1.253
1.189
1.021
0.809
0.659
0.616
0.678
0.805
0.94
1.007
0.985
0.956
0.991
1.097
1.222
1.267
1.269
1.271
1.269
1.269
1.269
1.267
1.22
1.097
1.005
0.97
0.995
1.075
1.179
1.257
1.259
1.216
1.14
1.097
1.077
1.073
1.081
1.101
1.14
1.179
1.206
1.216
1.202
1.138
0.97
0.751
0.542
0.385
0.348
0.495
0.86
1.269
1.273
1.273
1.273
1.273
1.271
1.269
1.263
1.263
1.265
1.265
1.267
1.265
1.263
1.263
1.267
1.271
1.271
1.271
1.271
1.271
1.271
1.269
1.267
1.269
1.271
1.269
1.267
1.245
1.124
0.989
0.891
0.823
0.786
0.823
0.921
1.024
1.118
1.247
1.269
1.269
1.271
1.267
1.187
0.936
0.684
0.532
0.557
0.776
1.152
1.271
1.273
1.273
1.271
1.267
1.218
1.048
0.864
0.743
0.737
0.899
1.236
1.271
1.273
1.271
1.273
1.271
1.269
1.259
1.093
0.86
0.694
0.633
0.68
0.819
1.005
1.185
1.269
1.271
1.271
1.269
1.269
1.265
1.202
1.034
0.811
0.602
0.452
0.37
0.36
0.418
0.543
0.725
0.983
1.267
1.273
1.271
1.271
1.271
1.269
1.267
1.228
1.075
0.854
0.667
0.651
0.884
1.267
1.273
1.271
1.269
1.255
1.042
0.694
0.413
0.344
0.526
0.854
1.177
1.269
1.269
1.267
1.245
1.136
0.991
0.87
0.784
0.7
0.653
0.7
0.825
0.976
1.079
1.152
1.265
1.271
1.271
1.269
1.155
0.794
0.422
0.219
0.25
0.477
0.811
1.181
1.271
1.271
1.271
1.259
1.122
0.927
0.786
0.788
0.978
1.269
1.271
1.271
1.265
1.085
0.71
0.293
0.006
0.0
0.196
0.641
1.22
1.271
1.273
1.273
1.271
1.271
1.269
1.269
1.251
1.019
0.682
0.426
0.379
0.557
0.878
1.226
1.273
1.271
1.269
1.249
1.048
0.747
0.422
0.151
0.0
0.0
0.143
0.461
0.936
1.271
1.271
1.271
1.269
1.267
1.267
1.269
1.271
1.271
1.271
1.271
1.271
1.269
1.267
1.191
0.948
0.626
0.356
0.278
0.418
0.739
1.126
1.269
1.273
1.269
1.267
1.253
1.181
1.083
0.972
0.827
0.641
0.44
0.262
0.162
0.17
0.299
0.54
0.866
1.193
1.269
1.269
1.269
1.267
1.236
1.126
0.997
0.938
0.983
1.124
1.261
1.263
1.214
1.069
0.909
0.798
0.786
0.868
0.978
1.048
1.067
1.065
1.034
0.991
0.96
0.964
1.003
1.003
0.884
0.661
0.452
0.332
0.321
0.346
0.358
0.344
0.33
0.377
0.514
0.723
0.946
1.103
1.173
1.175
1.124
1.019
0.878
0.714
0.534
0.368
0.205
0.045
0.0
0.006
0.147
0.373
0.616
0.809
0.921
0.936
0.878
0.753
0.581
0.397
0.233
0.121
0.082
0.145
0.315
0.543
0.764
0.919
0.962
0.909
0.815
0.743
0.721
0.739
0.731
0.631
0.428
0.188
0.0
0.0
0.0
0.0
0.016
0.102
0.276
0.508
0.761
0.983
1.077
0.966
0.649
0.194
0.0
0.0
0.0
0.0
0.0
0.0
0.0
0.0
0.0
0.0
0.0
0.0
0.0
0.0
0.0
0.0
0.0
0.0
0.0
0.0
0.018
0.047
0.066
0.065
0.063
0.098
0.192
0.319
0.434
0.477
0.42
0.272
0.1
0.0
0.0
0.0
0.004
0.092
0.223
0.338
0.346
0.199
0.0
0.0
0.0
0.0
0.0
0.0
0.0
0.0
0.0
0.0
0.0
0.0
0.0
0.0
0.0
0.0
0.0
0.0
0.0
0.0
0.0
0.0
0.0
0.0
0.0
0.0
0.0
0.0
0.0
0.0
0.0
0.0
0.0
0.0
0.0
0.0
0.0
0.0
0.0
0.0
0.0
0.0
0.0
0.0
0.0
0.0
0.0
0.0
0.0
0.0
0.0
0.0
0.0
0.0
0.0
0.0
0.0
0.0
0.0
0.0
0.0
0.0
0.0
0.0
0.0
0.0
0.0
0.0
0.0
0.0
0.0
0.0
0.0
0.0
0.0
0.0
0.0
0.0
0.0
0.0
0.0
0.0
0.0
0.0
0.0
0.0
0.0
0.0
0.0
0.0
0.0
0.0
0.0
0.0
0.0
0.0
0.0
0.0
0.0
0.0
0.0
0.0
0.0
0.0
0.0
0.0
0.0
0.0
0.0
0.0
0.0
0.0
0.0
0.0
0.0
0.0
0.0
0.0
0.0
0.0
0.0
0.0
0.0
0.0
0.0
0.0
0.031
0.102
0.178
0.221
0.192
0.047
0.0
0.0
0.0
0.0
0.0
0.0
0.0
0.0
0.0
0.0
0.0
0.0
0.0
0.0
0.0
0.0
0.0
0.0
0.0
0.0
0.0
0.0
0.0
0.0
0.0
0.0
0.0
0.0
0.0
0.01
0.031
0.057
0.086
0.109
0.119
0.119
0.113
0.1
0.096
0.109
0.154
0.231
0.319
0.389
0.409
0.35
0.213
0.033
0.0
0.0
0.0
0.0
0.0
0.0
0.0
0.0
0.0
0.0
0.0
0.0
0.0
0.0
0.0
0.0
0.0
0.0
0.0
0.0
0.0
0.0
0.0
0.0
0.0
0.0
0.0
0.0
0.0
0.0
0.0
0.0
0.0
0.0
0.0
0.0
0.0
0.0
0.0
0.0
0.0
0.0
0.0
0.0
0.0
0.0
0.0
0.0
0.029
0.123
0.225
0.289
0.283
0.205
0.061
0.0
0.0
0.0
0.0
0.0
0.0
0.0
0.0
0.0
0.0
0.0
0.0
0.0
0.0
0.0
0.0
0.0
0.0
0.0
0.0
0.0
0.0
0.0
0.0
0.0
0.0
0.0
0.016
0.041
0.072
0.102
0.129
0.151
0.16
0.168
0.162
0.149
0.133
0.113
0.102
0.094
0.092
0.1
0.113
0.133
0.162
0.197
0.229
0.256
0.278
0.289
0.295
0.293
0.285
0.274
0.268
0.264
0.262
0.262
0.27
0.283
0.303
0.328
0.356
0.379
0.399
0.413
0.42
0.418
0.409
0.395
0.383
0.379
0.385
0.399
0.42
0.452
0.481
0.512
0.532
0.536
0.526
0.504
0.481
0.461
0.45
0.454
0.473
0.508
0.553
0.6
0.641
0.671
0.686
0.686
0.673
0.653
0.628
0.608
0.596
0.596
0.61
0.631
0.661
0.694
0.725
0.749
0.766
0.774
0.776
0.772
0.764
0.755
0.747
0.745
0.747
0.757
0.77
0.786
0.807
0.833
0.852
0.87
0.878
0.878
0.87
0.86
0.848
0.837
0.831
0.831
0.841
0.858
0.878
0.897
0.911
0.921
0.927
0.927
0.925
0.917
0.913
0.909
0.909
0.909
0.911
0.911
0.917
0.921
0.927
0.933
0.936
0.944
0.952
0.958
0.962
0.964
0.962
0.962
0.96
0.962
0.964
0.968
0.978
0.987
0.999
1.005
1.007
1.007
1.005
1.001
0.997
0.995
0.995
0.999
1.007
1.015
1.019
1.021
1.022
1.021
1.019
1.017
1.017
1.019
1.021
1.026
1.032
1.036
1.038
1.04
1.04
1.032
1.022
1.015
1.019
1.034
1.054
1.069
1.071
1.065
1.048
1.026
1.003
0.978
0.962
0.956
0.964
0.985
1.019
1.05
1.077
1.095
1.101
1.095
1.079
1.058
1.036
1.017
1.001
0.989
0.983
0.985
0.995
1.009
1.024
1.036
1.036
1.026
1.015
0.995
0.972
0.948
0.927
0.905
0.903
0.929
0.985
1.065
1.159
1.239
1.261
1.245
1.177
1.062
0.927
0.809
0.739
0.737
0.796
0.897
1.015
1.122
1.202
1.241
1.238
1.193
1.114
1.017
0.919
0.841
0.792
0.776
0.796
0.841
0.903
0.97
1.032
1.075
1.097
1.093
1.069
1.032
0.979
0.929
0.88
0.847
0.837
0.845
0.868
0.903
0.942
0.976
0.987
0.97
0.933
0.895
0.886
0.913
0.974
1.052
1.112
1.134
1.109
1.042
0.938
0.817
0.688
0.598
0.575
0.626
0.741
0.901
1.067
1.206
1.263
1.263
1.236
1.134
0.974
0.798
0.641
0.547
0.542
0.62
0.757
0.919
1.069
1.177
1.232
1.224
1.167
1.081
0.995
0.931
0.891
0.864
0.848
0.858
0.886
0.899
0.866
0.778
0.667
0.594
0.6
0.704
0.87
1.036
1.177
1.265
1.267
1.267
1.253
1.144
0.931
0.7
0.526
0.456
0.504
0.639
0.829
1.038
1.23
1.267
1.261
1.228
1.152
1.071
1.011
0.974
0.95
0.917
0.888
0.866
0.856
0.87
0.901
0.956
1.024
1.083
1.112
1.107
1.064
0.981
0.886
0.794
0.737
0.735
0.782
0.858
0.935
0.995
1.034
1.075
1.148
1.253
1.267
1.269
1.269
1.267
1.265
1.259
1.21
1.122
1.028
0.96
0.899
0.85
0.845
0.897
0.989
1.071
1.099
1.085
1.079
1.101
1.107
1.079
1.048
1.067
1.15
1.236
1.265
1.265
1.261
1.261
1.265
1.267
1.269
1.269
1.271
1.269
1.267
1.265
1.238
1.181
1.144
1.136
1.124
1.083
1.005
0.915
0.852
0.819
0.829
0.901
1.034
1.189
1.267
1.267
1.267
1.265
1.263
1.267
1.267
1.269
1.271
1.271
1.273
1.271
1.271
1.271
1.271
1.271
1.271
1.267
1.245
1.169
1.114
1.054
0.978
0.958
1.052
1.238
1.269
1.269
1.263
1.13
0.864
0.563
0.325
0.211
0.225
0.381
0.682
1.089
1.273
1.273
1.273
1.273
1.273
1.271
1.273
1.271
1.271
1.271
1.269
1.269
1.269
1.267
1.267
1.259
1.204
1.175
1.228
1.269
1.269
1.269
1.269
1.269
1.271
1.271
1.271
1.271
1.269
1.253
1.079
0.872
0.766
0.862
1.132
1.271
1.273
1.269
1.271
1.271
1.273
1.273
1.273
1.273
1.273
1.273
1.273
1.273
1.273
1.273
1.273
1.273
1.273
1.273
1.273
1.271
1.273
1.273
1.271
1.271
1.271
1.273
1.273
1.273
1.273
1.273
1.275
1.273
1.273
1.273
1.273
1.273
1.273
1.273
1.273
1.271
1.273
1.273
1.273
1.273
1.273
1.273
1.273
1.273
1.273
1.273
1.273
1.273
1.273
1.273
1.271
1.273
1.273
1.273
1.273
1.273
1.273
1.271
1.271
1.271
1.269
1.271
1.271
1.273
1.273
1.273
1.273
1.273
1.273
1.273
1.271
1.273
1.271
1.269
1.267
1.267
1.267
1.269
1.269
1.273
1.271
1.273
1.273
1.273
1.273
1.273
1.273
1.271
1.271
1.269
1.263
1.234
1.173
1.169
1.265
1.271
1.271
1.269
1.269
1.271
1.271
1.271
1.269
1.265
1.261
1.251
1.208
1.122
1.007
0.88
0.768
0.68
0.639
0.663
0.768
0.978
1.263
1.271
1.269
1.269
1.222
1.017
0.737
0.495
0.354
0.326
0.424
0.622
0.899
1.175
1.269
1.263
1.202
1.079
0.989
0.993
1.11
1.265
1.269
1.263
1.157
0.884
0.528
0.209
0.022
0.047
0.285
0.676
1.142
1.271
1.271
1.271
1.267
1.265
1.263
1.241
1.181
1.087
1.003
0.954
0.919
0.856
0.739
0.581
0.434
0.397
0.518
0.774
1.075
1.267
1.269
1.263
1.173
0.993
0.788
0.551
0.293
0.02
0.0
0.0
0.0
0.09
0.295
0.528
0.717
0.835
0.872
0.843
0.764
0.661
0.542
0.422
0.317
0.242
0.223
0.278
0.426
0.665
0.944
1.181
1.267
1.263
1.183
0.989
0.733
0.459
0.221
0.059
0.0
0.0
0.045
0.115
0.201
0.317
0.475
0.696
0.983
1.265
1.271
1.249
0.942
0.42
0.0
0.0
0.0
0.0
0.0
0.0
0.0
0.0
0.0
0.0
0.043
0.151
0.311
0.502
0.686
0.821
0.874
0.845
0.749
0.61
0.456
0.33
0.264
0.25
0.289
0.364
0.422
0.444
0.45
0.416
0.319
0.18
0.033
0.0
0.0
0.0
0.043
0.172
0.354
0.577
0.802
0.952
0.95
0.745
0.36
0.0
0.0
0.0
0.0
0.0
0.0
0.0
0.0
0.0
0.0
0.0
0.0
0.0
0.0
0.0
0.0
0.0
0.0
0.0
0.002
0.051
0.127
0.231
0.371
0.557
0.757
0.917
0.968
0.874
0.637
0.303
0.0
0.0
0.0
0.0
0.0
0.0
0.0
0.0
0.0
0.0
0.051
0.199
0.352
0.442
0.452
0.36
0.192
0.0
0.0
0.0
0.0
0.0
0.0
0.0
0.0
0.0
0.0
0.0
0.0
0.0
0.0
0.0
0.0
0.0
0.0
0.0
0.0
0.0
0.0
0.0
0.0
0.0
0.0
0.0
0.0
0.027
0.196
0.442
0.657
0.719
0.555
0.186
0.0
0.0
0.0
0.0
0.0
0.0
0.0
0.0
0.0
0.0
0.0
0.0
0.0
0.0
0.0
0.0
0.0
0.0
0.0
0.0
0.0
0.0
0.0
0.0
0.0
0.0
0.0
0.0
0.0
0.0
0.0
0.0
0.0
0.0
0.0
0.0
0.0
0.0
0.0
0.0
0.0
0.0
0.0
0.0
0.0
0.0
0.0
0.0
0.0
0.0
0.0
0.0
0.0
0.0
0.0
0.0
0.0
0.0
0.0
0.0
0.0
0.0
0.0
0.0
0.0
0.0
0.0
0.0
0.0
0.0
0.0
0.0
0.0
0.0
0.0
0.0
0.0
0.0
0.0
0.0
0.0
0.0
0.0
0.0
0.0
0.0
0.0
0.0
0.0
0.0
0.0
0.0
0.0
0.0
0.0
0.0
0.0
0.0
0.043
0.109
0.164
0.172
0.113
0.0
0.0
0.0
0.0
0.0
0.0
0.0
0.0
0.0
0.0
0.0
0.0
0.0
0.0
0.01
0.08
0.18
0.299
0.416
0.493
0.504
0.448
0.332
0.172
0.002
0.0
0.0
0.0
0.0
0.0
0.012
0.063
0.127
0.199
0.274
0.344
0.414
0.469
0.5
0.487
0.416
0.293
0.139
0.0
0.0
0.0
0.0
0.0
0.006
0.049
0.129
0.266
0.45
0.647
0.807
0.872
0.794
0.561
0.225
0.0
0.0
0.0
0.0
0.0
0.0
0.0
0.0
0.0
0.0
0.014
0.088
0.203
0.344
0.477
0.567
0.6
0.571
0.487
0.368
0.237
0.117
0.033
0.0
0.014
0.076
0.17
0.27
0.37
0.444
0.485
0.487
0.454
0.393
0.323
0.26
0.213
0.194
0.199
0.233
0.289
0.364
0.438
0.51
0.569
0.608
0.616
0.577
0.5
0.395
0.293
0.209
0.158
0.141
0.151
0.178
0.219
0.268
0.315
0.346
0.366
0.368
0.352
0.323
0.285
0.252
0.231
0.227
0.242
0.276
0.321
0.366
0.403
0.428
0.438
0.426
0.399
0.364
0.325
0.289
0.262
0.244
0.242
0.252
0.276
0.301
0.33
0.358
0.375
0.387
0.385
0.37
0.348
0.323
0.301
0.283
0.274
0.274
0.287
0.313
0.348
0.379
0.401
0.409
0.399
0.385
0.373
0.371
0.377
0.391
0.413
0.438
0.454
0.461
0.471
0.485
0.504
0.526
0.545
0.559
0.565
0.567
0.561
0.549
0.53
0.502
0.475
0.452
0.436
0.432
0.452
0.495
0.555
0.618
0.674
0.708
0.717
0.706
0.684
0.651
0.616
0.583
0.559
0.545
0.551
0.571
0.604
0.645
0.688
0.721
0.739
0.739
0.731
0.717
0.702
0.686
0.673
0.659
0.653
0.653
0.659
0.667
0.678
0.694
0.71
0.721
0.725
0.721
0.712
0.7
0.694
0.694
0.696
0.704
0.717
0.731
0.741
0.737
0.725
0.71
0.692
0.68
0.671
0.663
0.659
0.667
0.682
0.696
0.706
0.71
0.71
0.712
0.716
0.717
0.717
0.717
0.719
0.719
0.719
0.716
0.706
0.692
0.68
0.671
0.671
0.674
0.684
0.698
0.714
0.727
0.735
0.731
0.721
0.702
0.68
0.659
0.645
0.641
0.649
0.665
0.684
0.698
0.71
0.714
0.71
0.7
0.688
0.674
0.665
0.663
0.669
0.68
0.694
0.702
0.704
0.708
0.717
0.729
0.741
0.749
0.757
0.759
0.751
0.739
0.725
0.716
0.71
0.708
0.712
0.719
0.733
0.749
0.764
0.774
0.78
0.78
0.774
0.764
0.755
0.745
0.741
0.743
0.751
0.759
0.764
0.768
0.77
0.77
0.77
0.77
0.772
0.774
0.776
0.776
0.772
0.772
0.77
0.772
0.774
0.776
0.784
0.792
0.798
0.804
0.805
0.805
0.8
0.792
0.782
0.776
0.772
0.772
0.776
0.788
0.802
0.815
0.825
0.831
0.831
0.827
0.819
0.811
0.804
0.8
0.8
0.804
0.809
0.813
0.819
0.819
0.823
0.825
0.823
0.823
0.827
0.827
0.831
0.833
0.831
0.831
0.829
0.829
0.827
0.827
0.827
0.831
0.833
0.839
0.839
0.835
0.829
0.823
0.819
0.815
0.815
0.819
0.825
0.835
0.843
0.848
0.848
0.843
0.827
0.807
0.786
0.77
0.766
0.782
0.817
0.866
0.911
0.94
0.942
0.917
0.866
0.798
0.735
0.696
0.688
0.714
0.764
0.825
0.888
0.944
0.985
1.005
0.985
0.929
0.843
0.749
0.674
0.641
0.655
0.71
0.798
0.89
0.964
1.013
1.03
1.011
0.962
0.884
0.79
0.702
0.649
0.635
0.653
0.696
0.761
0.831
0.888
0.942
0.983
1.001
0.991
0.966
0.936
0.909
0.888
0.872
0.852
0.819
0.753
0.671
0.594
0.559
0.587
0.674
0.805
0.95
1.091
1.214
1.265
1.261
1.232
1.128
0.972
0.792
0.62
0.485
0.42
0.434
0.532
0.686
0.852
0.991
1.079
1.089
1.054
1.005
0.966
0.952
0.972
1.003
1.032
1.046
1.028
0.983
0.917
0.841
0.764
0.717
0.719
0.784
0.893
1.026
1.148
1.238
1.261
1.243
1.169
1.046
0.89
0.731
0.606
0.54
0.549
0.63
0.774
0.96
1.157
1.267
1.267
1.265
1.245
1.167
1.056
0.936
0.841
0.786
0.776
0.811
0.895
1.022
1.169
1.267
1.267
1.265
1.255
1.21
1.146
1.079
1.007
0.927
0.839
0.762
0.727
0.759
0.85
0.976
1.122
1.259
1.269
1.271
1.269
1.269
1.267
1.267
1.261
1.224
1.13
1.013
0.913
0.862
0.87
0.925
1.021
1.128
1.234
1.267
1.267
1.267
1.267
1.267
1.267
1.267
1.265
1.261
1.251
1.224
1.177
1.132
1.101
1.11
1.159
1.222
1.261
1.261
1.245
1.189
1.13
1.122
1.163
1.22
1.255
1.263
1.261
1.257
1.245
1.226
1.214
1.224
1.257
1.265
1.263
1.255
1.239
1.214
1.163
1.091
1.022
0.983
0.979
0.993
1.05
1.167
1.269
1.271
1.269
1.269
1.269
1.267
1.267
1.267
1.269
1.265
1.263
1.261
1.261
1.253
1.216
1.157
1.107
1.064
1.019
1.003
1.042
1.136
1.253
1.269
1.265
1.245
1.161
1.071
1.013
0.997
1.036
1.124
1.23
1.265
1.267
1.265
1.267
1.267
1.267
1.267
1.261
1.204
1.128
1.112
1.189
1.267
1.267
1.267
1.234
1.118
0.968
0.804
0.657
0.569
0.555
0.6
0.69
0.829
1.017
1.243
1.271
1.271
1.273
1.273
1.273
1.273
1.273
1.271
1.265
1.185
1.001
0.804
0.633
0.524
0.532
0.692
1.028
1.271
1.273
1.273
1.273
1.273
1.271
1.271
1.269
1.267
1.267
1.269
1.269
1.271
1.271
1.271
1.267
1.191
0.95
0.694
0.5
0.426
0.508
0.759
1.165
1.271
1.273
1.273
1.271
1.269
1.269
1.271
1.271
1.271
1.271
1.269
1.253
1.128
0.927
0.735
0.651
0.731
0.991
1.267
1.271
1.271
1.271
1.269
1.269
1.269
1.269
1.267
1.263
1.238
1.251
1.267
1.269
1.269
1.261
1.124
0.817
0.5
0.313
0.399
0.764
1.265
1.271
1.271
1.271
1.255
1.124
0.905
0.676
0.508
0.407
0.454
0.768
1.269
1.273
1.273
1.273
1.271
1.271
1.267
1.261
1.163
0.956
0.723
0.569
0.616
0.866
1.232
1.271
1.271
1.271
1.265
1.165
0.935
0.757
0.782
1.056
1.271
1.271
1.271
1.271
1.269
1.267
1.263
1.261
1.21
1.083
0.913
0.727
0.608
0.633
0.841
1.224
1.271
1.273
1.273
1.271
1.267
1.204
0.985
0.735
0.538
0.471
0.581
0.852
1.238
1.271
1.273
1.273
1.271
1.271
1.271
1.271
1.273
1.271
1.271
1.267
1.239
1.169
1.136
1.157
1.173
1.12
1.022
0.897
0.778
0.684
0.678
0.827
1.114
1.271
1.271
1.271
1.271
1.271
1.269
1.267
1.251
1.189
1.118
1.071
1.042
1.003
0.927
0.854
0.841
0.903
1.042
1.234
1.271
1.273
1.271
1.273
1.271
1.271
1.271
1.269
1.267
1.265
1.265
1.267
1.267
1.267
1.265
1.265
1.265
1.265
1.269
1.269
1.271
1.269
1.269
1.259
1.132
0.907
0.669
0.506
0.471
0.549
0.704
0.888
1.062
1.202
1.265
1.265
1.257
1.216
1.134
1.028
0.907
0.79
0.694
0.645
0.694
0.862
1.138
1.269
1.271
1.271
1.273
1.271
1.273
1.271
1.273
1.269
1.196
0.97
0.694
0.446
0.26
0.168
0.186
0.299
0.489
0.759
1.107
1.271
1.273
1.271
1.269
1.224
0.981
0.631
0.274
0.012
0.0
0.01
0.147
0.383
0.723
1.124
1.271
1.271
1.267
1.202
0.96
0.63
0.295
0.043
0.0
0.0
0.133
0.344
0.6
0.854
1.062
1.191
1.222
1.122
0.888
0.557
0.219
0.0
0.0
0.02
0.178
0.395
0.606
0.766
0.821
0.706
0.444
0.121
0.0
0.0
0.0
0.02
0.076
0.127
0.162
0.172
0.135
0.065
0.0
0.0
0.09
0.264
0.424
0.487
0.426
0.27
0.07
0.0
0.0
0.0
0.0
0.0
0.0
0.0
0.0
0.0
0.0
0.0
0.0
0.0
0.0
0.0
0.0
0.0
0.0
0.0
0.0
0.016
0.131
0.291
0.457
0.59
0.651
0.594
0.397
0.076
0.0
0.0
0.0
0.0
0.0
0.0
0.0
0.0
0.0
0.0
0.0
0.0
0.0
0.0
0.0
0.0
0.0
0.0
0.0
0.0
0.0
0.0
0.0
0.0
0.0
0.0
0.0
0.0
0.0
0.0
0.0
0.0
0.0
0.0
0.0
0.0
0.0
0.0
0.0
0.0
0.0
0.0
0.0
0.0
0.0
0.0
0.0
0.0
0.0
0.0
0.0
0.0
0.0
0.0
0.0
0.0
0.0
0.0
0.0
0.0
0.0
0.0
0.0
0.0
0.0
0.0
0.0
0.0
0.0
0.0
0.0
0.0
0.0
0.0
0.0
0.0
0.0
0.0
0.0
0.0
0.0
0.0
0.0
0.0
0.0
0.0
0.0
0.0
0.0
0.0
0.0
0.0
0.0
0.0
0.0
0.0
0.0
0.0
0.0
0.0
0.0
0.0
0.0
0.0
0.0
0.0
0.0
0.0
0.0
0.0
0.0
0.0
0.0
0.0
0.0
0.0
0.0
0.0
0.0
0.0
0.0
0.0
0.0
0.0
0.0
0.0
0.0
0.0
0.0
0.0
0.0
0.0
0.0
0.0
0.0
0.0
0.0
0.0
0.0
0.0
0.0
0.0
0.0
0.0
0.0
0.0
0.0
0.0
0.0
0.0
0.0
0.0
0.0
0.0
0.002
0.004
0.0
0.0
0.0
0.0
0.0
0.0
0.0
0.0
0.0
0.0
0.0
0.0
0.0
0.0
0.0
0.022
0.084
0.174
0.274
0.364
0.426
0.463
0.471
0.438
0.362
0.25
0.119
0.0
0.0
0.0
0.0
0.0
0.0
0.022
0.084
0.166
0.26
0.354
0.436
0.502
0.549
0.577
0.573
0.522
0.426
0.309
0.184
0.059
0.0
0.0
0.0
0.0
0.0
0.0
0.0
0.029
0.072
0.123
0.184
0.244
0.289
0.315
0.305
0.252
0.17
0.057
0.0
0.0
0.0
0.0
0.0
0.0
0.0
0.0
0.0
0.0
0.0
0.0
0.0
0.022
0.049
0.078
0.106
0.131
0.151
0.164
0.17
0.168
0.149
0.117
0.074
0.037
0.008
0.0
0.0
0.025
0.088
0.182
0.307
0.444
0.569
0.651
0.665
0.604
0.483
0.323
0.135
0.0
0.0
0.0
0.0
0.0
0.0
0.0
0.02
0.072
0.149
0.223
0.283
0.323
0.33
0.303
0.25
0.19
0.139
0.104
0.096
0.111
0.149
0.203
0.266
0.325
0.371
0.399
0.407
0.393
0.362
0.326
0.293
0.266
0.25
0.252
0.266
0.299
0.336
0.377
0.418
0.456
0.483
0.5
0.5
0.495
0.493
0.506
0.528
0.557
0.583
0.596
0.59
0.569
0.524
0.463
0.399
0.338
0.295
0.283
0.305
0.36
0.436
0.522
0.596
0.651
0.676
0.669
0.637
0.588
0.534
0.485
0.452
0.44
0.454
0.487
0.536
0.583
0.628
0.659
0.676
0.671
0.649
0.618
0.587
0.563
0.545
0.54
0.538
0.547
0.565
0.59
0.62
0.645
0.671
0.688
0.696
0.69
0.674
0.657
0.641
0.633
0.633
0.639
0.649
0.667
0.688
0.712
0.733
0.745
0.745
0.737
0.725
0.712
0.7
0.692
0.69
0.698
0.71
0.725
0.739
0.753
0.761
0.764
0.762
0.753
0.737
0.725
0.723
0.733
0.751
0.768
0.786
0.798
0.805
0.809
0.809
0.804
0.794
0.782
0.774
0.77
0.768
0.768
0.772
0.78
0.79
0.8
0.807
0.819
0.829
0.839
0.843
0.841
0.837
0.829
0.819
0.811
0.805
0.804
0.809
0.817
0.825
0.833
0.835
0.835
0.829
0.821
0.813
0.802
0.794
0.788
0.786
0.784
0.784
0.784
0.786
0.788
0.79
0.792
0.792
0.792
0.792
0.794
0.794
0.792
0.786
0.782
0.776
0.77
0.762
0.757
0.757
0.766
0.784
0.805
0.821
0.829
0.831
0.827
0.819
0.811
0.804
0.798
0.798
0.8
0.805
0.809
0.813
0.819
0.823
0.825
0.827
0.829
0.833
0.837
0.841
0.841
0.837
0.831
0.827
0.825
0.825
0.827
0.835
0.845
0.854
0.862
0.864
0.86
0.852
0.845
0.835
0.827
0.823
0.823
0.833
0.847
0.858
0.874
0.886
0.893
0.897
0.893
0.886
0.878
0.868
0.862
0.858
0.858
0.86
0.864
0.872
0.882
0.89
0.897
0.907
0.921
0.938
0.95
0.956
0.946
0.931
0.919
0.911
0.915
0.925
0.933
0.933
0.919
0.891
0.862
0.845
0.85
0.88
0.927
0.978
1.022
1.05
1.06
1.058
1.052
1.042
1.021
0.978
0.903
0.819
0.757
0.733
0.764
0.854
0.978
1.103
1.2
1.255
1.259
1.232
1.155
1.04
0.899
0.753
0.624
0.543
0.538
0.6
0.716
0.856
1.003
1.134
1.236
1.263
1.263
1.257
1.224
1.148
1.034
0.917
0.833
0.792
0.78
0.784
0.77
0.733
0.696
0.696
0.741
0.821
0.946
1.099
1.249
1.269
1.269
1.269
1.267
1.263
1.234
1.152
1.024
0.88
0.725
0.553
0.391
0.313
0.362
0.543
0.811
1.085
1.265
1.269
1.265
1.245
1.167
1.062
0.952
0.854
0.762
0.684
0.639
0.643
0.69
0.757
0.817
0.86
0.909
0.972
1.054
1.138
1.21
1.251
1.245
1.198
1.107
0.989
0.866
0.774
0.751
0.802
0.907
1.026
1.13
1.195
1.204
1.159
1.065
0.923
0.747
0.583
0.471
0.438
0.5
0.643
0.864
1.136
1.271
1.269
1.269
1.265
1.204
1.069
0.929
0.837
0.821
0.89
1.019
1.155
1.259
1.267
1.263
1.263
1.259
1.239
1.181
1.089
0.976
0.868
0.792
0.762
0.782
0.854
0.983
1.157
1.267
1.269
1.267
1.263
1.241
1.177
1.099
1.028
0.979
0.96
0.972
1.034
1.15
1.265
1.269
1.271
1.271
1.271
1.271
1.269
1.265
1.251
1.193
1.122
1.091
1.114
1.181
1.259
1.267
1.265
1.263
1.259
1.232
1.157
1.062
1.028
1.126
1.269
1.273
1.271
1.273
1.271
1.269
1.261
1.155
0.993
0.852
0.8
0.876
1.107
1.271
1.271
1.273
1.273
1.273
1.273
1.273
1.271
1.271
1.271
1.271
1.269
1.267
1.259
1.216
1.144
1.075
1.052
1.103
1.265
1.271
1.273
1.273
1.273
1.273
1.273
1.271
1.267
1.261
1.224
1.195
1.241
1.271
1.271
1.273
1.271
1.273
1.271
1.271
1.271
1.271
1.269
1.269
1.263
1.23
1.179
1.193
1.267
1.269
1.271
1.271
1.271
1.271
1.271
1.271
1.271
1.271
1.271
1.271
1.269
1.265
1.259
1.249
1.263
1.269
1.271
1.271
1.271
1.269
1.269
1.271
1.269
1.269
1.269
1.271
1.271
1.271
1.271
1.271
1.271
1.269
1.269
1.267
1.267
1.269
1.269
1.267
1.265
1.23
1.11
1.034
1.077
1.206
1.269
1.269
1.241
1.069
0.858
0.669
0.545
0.551
0.674
0.872
1.13
1.271
1.267
1.239
1.077
0.856
0.612
0.44
0.444
0.649
1.019
1.271
1.271
1.271
1.271
1.271
1.271
1.269
1.263
1.155
0.897
0.604
0.424
0.418
0.571
0.772
0.927
1.03
1.114
1.208
1.267
1.271
1.269
1.269
1.241
1.032
0.719
0.399
0.199
0.225
0.438
0.702
0.929
1.04
1.013
0.897
0.717
0.512
0.34
0.246
0.282
0.454
0.717
1.009
1.238
1.265
1.255
1.165
0.989
0.761
0.51
0.287
0.156
0.147
0.276
0.528
0.888
1.269
1.271
1.273
1.273
1.271
1.257
1.022
0.673
0.358
0.182
0.207
0.434
0.794
1.169
1.271
1.269
1.161
0.831
0.469
0.168
0.0
0.0
0.096
0.299
0.585
0.888
1.12
1.183
1.001
0.645
0.252
0.0
0.0
0.023
0.192
0.422
0.631
0.761
0.811
0.813
0.845
0.995
1.251
1.271
1.269
1.263
1.169
1.026
0.917
0.87
0.835
0.772
0.628
0.36
0.022
0.0
0.0
0.115
0.622
1.271
1.273
1.273
1.271
1.267
1.196
1.052
0.938
0.917
0.946
0.946
0.888
0.759
0.551
0.338
0.156
0.072
0.125
0.311
0.581
0.86
1.085
1.226
1.251
1.183
1.052
0.923
0.854
0.848
0.876
0.915
0.952
1.042
1.259
1.271
1.271
1.271
1.269
1.236
1.032
0.778
0.569
0.481
0.547
0.747
1.022
1.267
1.271
1.271
1.271
1.269
1.267
1.263
1.265
1.269
1.271
1.269
1.269
1.263
1.245
1.171
0.999
0.77
0.561
0.438
0.438
0.532
0.7
0.931
1.198
1.271
1.271
1.271
1.267
1.236
1.109
0.935
0.759
0.602
0.489
0.446
0.502
0.667
0.944
1.267
1.271
1.271
1.271
1.269
1.261
1.169
1.007
0.847
0.735
0.71
0.749
0.805
0.852
0.878
0.882
0.866
0.85
0.85
0.874
0.948
1.052
1.116
1.093
0.966
0.759
0.545
0.379
0.272
0.254
0.348
0.54
0.776
0.976
1.091
1.071
0.893
0.594
0.225
0.0
0.0
0.0
0.0
0.0
0.037
0.162
0.354
0.579
0.757
0.837
0.792
0.639
0.418
0.17
0.0
0.0
0.0
0.059
0.272
0.532
0.723
0.782
0.739
0.626
0.469
0.266
0.008
0.0
0.0
0.0
0.02
0.121
0.223
0.289
0.323
0.332
0.354
0.42
0.522
0.588
0.555
0.407
0.16
0.0
0.0
0.0
0.0
0.0
0.0
0.0
0.0
0.0
0.0
0.0
0.0
0.02
0.08
0.16
0.252
0.383
0.549
0.696
0.755
0.674
0.442
0.102
0.0
0.0
0.0
0.0
0.0
0.0
0.0
0.0
0.065
0.237
0.42
0.538
0.516
0.313
0.0
0.0
0.0
0.0
0.0
0.006
0.106
0.201
0.233
0.174
0.027
0.0
0.0
0.0
0.0
0.0
0.0
0.0
0.0
0.0
0.0
0.0
0.0
0.0
0.0
0.0
0.0
0.0
0.0
0.0
0.0
0.014
0.143
0.334
0.502
0.512
0.311
0.0
0.0
0.0
0.0
0.0
0.0
0.0
0.0
0.0
0.0
0.0
0.0
0.0
0.0
0.0
0.0
0.0
0.0
0.0
0.0
0.0
0.0
0.0
0.0
0.0
0.0
0.0
0.0
0.0
0.0
0.0
0.0
0.0
0.0
0.0
0.0
0.0
0.0
0.0
0.0
0.0
0.0
0.0
0.0
0.0
0.0
0.0
0.0
0.0
0.0
0.0
0.0
0.0
0.0
0.0
0.0
0.0
0.0
0.0
0.0
0.0
0.0
0.0
0.0
0.0
0.0
0.0
0.0
0.0
0.0
0.0
0.0
0.0
0.0
0.0
0.0
0.0
0.0
0.0
0.0
0.0
0.0
0.0
0.0
0.0
0.0
0.0
0.0
0.0
0.0
0.0
0.0
0.0
0.0
0.0
0.0
0.0
0.0
0.0
0.0
0.0
0.0
0.0
0.0
0.0
0.0
0.0
0.0
0.0
0.0
0.0
0.0
0.0
0.0
0.07
0.201
0.332
0.411
0.411
0.336
0.197
0.025
0.0
0.0
0.0
0.0
0.0
0.029
0.108
0.213
0.33
0.442
0.526
0.549
0.495
0.381
0.229
0.068
0.0
0.0
0.135
0.383
0.665
0.87
0.923
0.805
0.54
0.174
0.0
0.0
0.0
0.0
0.0
0.0
0.0
0.0
0.0
0.0
0.047
0.125
0.209
0.274
0.305
0.303
0.27
0.217
0.164
0.117
0.096
0.098
0.127
0.178
0.244
0.315
0.375
0.42
0.446
0.459
0.473
0.495
0.524
0.54
0.524
0.467
0.371
0.26
0.154
0.063
0.008
0.004
0.041
0.109
0.186
0.254
0.311
0.346
0.368
0.356
0.289
0.16
0.0
0.0
0.0
0.0
0.0
0.0
0.0
0.0
0.0
0.004
0.027
0.061
0.092
0.119
0.137
0.149
0.156
0.158
0.156
0.151
0.143
0.139
0.139
0.147
0.158
0.178
0.203
0.231
0.262
0.289
0.315
0.342
0.375
0.426
0.493
0.573
0.651
0.696
0.68
0.6
0.465
0.295
0.129
0.0
0.0
0.0
0.0
0.037
0.108
0.207
0.307
0.387
0.436
0.446
0.426
0.387
0.344
0.311
0.297
0.309
0.348
0.397
0.444
0.473
0.483
0.471
0.442
0.401
0.356
0.313
0.285
0.278
0.289
0.311
0.344
0.381
0.418
0.448
0.467
0.473
0.469
0.454
0.436
0.414
0.397
0.387
0.387
0.401
0.426
0.457
0.491
0.522
0.547
0.561
0.561
0.549
0.532
0.514
0.5
0.491
0.491
0.495
0.504
0.52
0.534
0.542
0.543
0.54
0.532
0.528
0.528
0.532
0.538
0.551
0.567
0.587
0.604
0.618
0.628
0.63
0.628
0.622
0.614
0.606
0.604
0.608
0.614
0.624
0.63
0.637
0.645
0.651
0.655
0.659
0.661
0.665
0.673
0.678
0.684
0.686
0.686
0.69
0.692
0.694
0.7
0.708
0.716
0.727
0.735
0.737
0.733
0.729
0.727
0.727
0.729
0.735
0.745
0.759
0.774
0.782
0.788
0.786
0.78
0.772
0.766
0.762
0.764
0.77
0.782
0.794
0.805
0.813
0.813
0.811
0.805
0.798
0.788
0.784
0.784
0.792
0.804
0.819
0.831
0.843
0.852
0.858
0.862
0.86
0.858
0.858
0.86
0.862
0.866
0.868
0.868
0.87
0.874
0.876
0.878
0.88
0.882
0.886
0.888
0.89
0.888
0.888
0.89
0.89
0.888
0.882
0.874
0.868
0.864
0.86
0.862
0.872
0.886
0.901
0.915
0.925
0.921
0.915
0.911
0.909
0.911
0.913
0.915
0.915
0.909
0.895
0.878
0.858
0.847
0.856
0.884
0.933
0.985
1.022
1.026
0.991
0.933
0.874
0.847
0.847
0.872
0.911
0.954
0.979
0.981
0.962
0.931
0.897
0.872
0.856
0.852
0.862
0.882
0.909
0.929
0.94
0.942
0.938
0.94
0.954
0.985
1.017
1.021
0.985
0.931
0.876
0.839
0.821
0.815
0.825
0.847
0.876
0.907
0.925
0.905
0.87
0.843
0.835
0.862
0.915
0.972
1.021
1.048
1.028
0.976
0.919
0.886
0.893
0.936
0.997
1.048
1.064
1.04
0.978
0.882
0.786
0.721
0.721
0.778
0.884
1.005
1.105
1.159
1.173
1.157
1.118
1.058
0.974
0.866
0.745
0.649
0.604
0.604
0.649
0.739
0.868
1.013
1.144
1.22
1.228
1.169
1.067
0.962
0.874
0.805
0.751
0.721
0.725
0.772
0.878
1.032
1.2
1.267
1.267
1.253
1.179
1.077
0.991
0.95
0.938
0.907
0.827
0.716
0.626
0.592
0.626
0.723
0.876
1.064
1.251
1.269
1.269
1.269
1.265
1.251
1.193
1.079
0.942
0.829
0.761
0.735
0.747
0.78
0.823
0.866
0.893
0.931
1.028
1.173
1.267
1.269
1.269
1.265
1.232
1.134
1.024
0.946
0.909
0.897
0.895
0.923
0.979
1.073
1.198
1.269
1.269
1.267
1.265
1.241
1.165
1.052
0.921
0.811
0.745
0.735
0.786
0.891
1.032
1.206
1.269
1.271
1.271
1.271
1.269
1.267
1.251
1.132
0.966
0.88
0.901
1.001
1.155
1.267
1.269
1.261
1.204
1.095
0.972
0.848
0.731
0.63
0.608
0.749
1.058
1.271
1.271
1.273
1.273
1.269
1.263
1.179
1.058
0.97
0.952
0.985
1.064
1.208
1.269
1.271
1.269
1.269
1.267
1.263
1.263
1.265
1.263
1.236
1.124
0.976
0.854
0.827
0.921
1.126
1.271
1.273
1.273
1.275
1.273
1.273
1.273
1.273
1.269
1.265
1.241
1.202
1.161
1.116
1.075
1.054
1.093
1.224
1.269
1.271
1.271
1.271
1.271
1.271
1.269
1.269
1.271
1.271
1.273
1.273
1.273
1.273
1.273
1.273
1.271
1.273
1.273
1.273
1.275
1.273
1.275
1.273
1.275
1.273
1.273
1.273
1.273
1.273
1.273
1.273
1.273
1.273
1.273
1.273
1.273
1.273
1.273
1.271
1.271
1.273
1.273
1.273
1.273
1.275
1.273
1.273
1.273
1.273
1.273
1.273
1.273
1.273
1.273
1.275
1.275
1.273
1.273
1.275
1.273
1.273
1.273
1.273
1.275
1.273
1.273
1.273
1.273
1.273
1.273
1.273
1.273
1.273
1.273
1.273
1.273
1.273
1.273
1.273
1.273
1.273
1.273
1.273
1.273
1.273
1.273
1.273
1.271
1.271
1.269
1.265
1.267
1.271
1.271
1.273
1.273
1.271
1.271
1.273
1.273
1.273
1.271
1.269
1.265
1.259
1.261
1.269
1.271
1.271
1.273
1.271
1.271
1.267
1.191
0.925
0.557
0.207
0.0
0.0
0.291
0.933
1.273
1.275
1.273
1.273
1.271
1.271
1.271
1.269
1.257
1.118
0.886
0.653
0.485
0.424
0.524
0.77
1.095
1.271
1.271
1.271
1.267
1.206
0.991
0.721
0.461
0.293
0.285
0.424
0.673
0.974
1.228
1.269
1.263
1.204
1.103
1.044
1.089
1.228
1.269
1.267
1.253
1.167
0.97
0.678
0.364
0.172
0.156
0.276
0.477
0.647
0.71
0.727
0.79
0.944
1.128
1.257
1.265
1.267
1.267
1.263
1.263
1.261
1.234
1.077
0.7
0.131
0.0
0.0
0.0
0.0
0.0
0.0
0.049
0.239
0.526
0.847
1.079
1.122
0.983
0.762
0.53
0.366
0.334
0.416
0.563
0.665
0.622
0.44
0.197
0.008
0.0
0.149
0.426
0.761
1.05
1.189
1.148
0.927
0.6
0.26
0.0
0.0
0.0
0.0
0.0
0.0
0.002
0.262
0.768
1.271
1.273
1.271
1.148
0.641
0.0
0.0
0.0
0.0
0.0
0.0
0.0
0.0
0.0
0.057
0.336
0.719
1.064
1.216
1.14
0.845
0.391
0.0
0.0
0.0
0.0
0.0
0.0
0.0
0.0
0.0
0.0
0.0
0.004
0.119
0.289
0.475
0.622
0.716
0.817
0.958
1.091
1.124
0.946
0.561
0.074
0.0
0.0
0.0
0.0
0.0
0.0
0.0
0.0
0.0
0.0
0.0
0.0
0.029
0.119
0.215
0.246
0.194
0.082
0.0
0.0
0.0
0.008
0.108
0.289
0.542
0.809
1.001
1.024
0.847
0.526
0.149
0.0
0.0
0.0
0.0
0.0
0.0
0.108
0.295
0.514
0.714
0.856
0.946
0.991
0.979
0.884
0.692
0.413
0.09
0.0
0.0
0.0
0.043
0.217
0.411
0.514
0.5
0.418
0.35
0.354
0.426
0.524
0.573
0.543
0.442
0.332
0.268
0.297
0.44
0.643
0.804
0.829
0.688
0.436
0.172
0.0
0.0
0.02
0.143
0.334
0.579
0.85
1.107
1.263
1.267
1.243
1.128
0.921
0.659
0.397
0.199
0.096
0.072
0.115
0.221
0.407
0.643
0.878
1.038
1.091
1.036
0.921
0.807
0.731
0.702
0.696
0.676
0.6
0.436
0.217
0.02
0.0
0.0
0.0
0.0
0.084
0.237
0.467
0.782
1.13
1.269
1.269
1.253
1.083
0.821
0.547
0.33
0.199
0.172
0.254
0.436
0.7
1.015
1.267
1.269
1.267
1.23
1.091
0.886
0.649
0.436
0.305
0.276
0.348
0.518
0.762
1.067
1.269
1.271
1.271
1.267
1.208
0.972
0.62
0.264
0.002
0.0
0.035
0.209
0.405
0.549
0.631
0.667
0.674
0.678
0.68
0.68
0.669
0.631
0.569
0.489
0.416
0.383
0.414
0.528
0.706
0.897
1.056
1.146
1.15
1.062
0.899
0.725
0.596
0.551
0.602
0.704
0.809
0.895
0.96
0.997
1.015
1.011
0.979
0.901
0.743
0.5
0.203
0.0
0.0
0.0
0.0
0.0
0.09
0.326
0.633
0.911
1.056
1.009
0.762
0.37
0.0
0.0
0.0
0.0
0.0
0.0
0.0
0.0
0.0
0.0
0.0
0.0
0.0
0.0
0.0
0.0
0.0
0.0
0.025
0.065
0.049
0.0
0.0
0.0
0.0
0.0
0.0
0.0
0.0
0.0
0.0
0.0
0.0
0.0
0.0
0.0
0.0
0.0
0.0
0.0
0.0
0.0
0.0
0.0
0.0
0.0
0.0
0.0
0.0
0.0
0.0
0.0
0.0
0.0
0.0
0.0
0.0
0.0
0.0
0.0
0.0
0.0
0.0
0.0
0.0
0.0
0.0
0.0
0.0
0.0
0.0
0.0
0.0
0.0
0.0
0.0
0.0
0.0
0.0
0.0
0.0
0.0
0.0
0.0
0.0
0.0
0.0
0.0
0.0
0.0
0.0
0.0
0.0
0.0
0.0
0.033
0.121
0.188
0.178
0.061
0.0
0.0
0.0
0.0
0.0
0.0
0.0
0.0
0.0
0.0
0.0
0.0
0.0
0.0
0.0
0.006
0.043
0.098
0.143
0.164
0.156
0.127
0.09
0.051
0.023
0.018
0.033
0.068
0.109
0.147
0.178
0.192
0.19
0.174
0.154
0.139
0.139
0.152
0.182
0.219
0.268
0.313
0.364
0.411
0.434
0.407
0.319
0.166
0.0
0.0
0.0
0.0
0.0
0.0
0.0
0.0
0.0
0.0
0.0
0.0
0.0
0.008
0.029
0.041
0.039
0.025
0.018
0.016
0.031
0.057
0.094
0.129
0.156
0.174
0.178
0.166
0.139
0.106
0.072
0.043
0.025
0.025
0.031
0.051
0.072
0.098
0.121
0.139
0.151
0.154
0.151
0.147
0.149
0.164
0.192
0.229
0.268
0.299
0.315
0.305
0.262
0.194
0.109
0.02
0.0
0.0
0.0
0.0
0.0
0.0
0.0
0.004
0.027
0.07
0.117
0.16
0.19
0.207
0.203
0.184
0.156
0.125
0.102
0.088
0.094
0.109
0.135
0.164
0.19
0.209
0.219
0.219
0.211
0.196
0.182
0.17
0.162
0.164
0.166
0.174
0.19
0.207
0.223
0.24
0.254
0.266
0.274
0.278
0.276
0.264
0.25
0.233
0.221
0.221
0.231
0.254
0.289
0.326
0.36
0.383
0.391
0.383
0.362
0.33
0.299
0.278
0.274
0.289
0.321
0.352
0.383
0.401
0.407
0.411
0.411
0.409
0.401
0.389
0.379
0.371
0.366
0.364
0.366
0.375
0.389
0.407
0.422
0.432
0.438
0.45
0.459
0.467
0.473
0.471
0.463
0.45
0.432
0.414
0.413
0.42
0.436
0.457
0.487
0.526
0.569
0.606
0.628
0.635
0.628
0.612
0.588
0.563
0.54
0.52
0.508
0.506
0.516
0.542
0.571
0.602
0.631
0.653
0.659
0.653
0.633
0.606
